time(s),100348,200437,110401,100081,100083,100087,100085,100082,100080,100084
0.0,24.2249,3.60857,6.11572,2.6671099999999996,12.8693,5.27039,3.45001,10.5087,1.8096900000000002,16.4444
0.02,24.1745,3.6101,6.11725,2.6777900000000003,12.8601,5.27039,3.44849,10.5087,1.8066400000000002,16.4871
0.04,24.1394,3.60857,6.1142,2.68847,12.8555,5.27039,3.44696,10.5103,1.80817,16.5192
0.06,24.1058,3.60857,6.1142,2.7006799999999997,12.8555,5.2597,3.45154,10.5103,1.80817,16.5604
0.08,24.0677,3.59636,6.1142,2.71441,12.8601,5.25818,3.45154,10.5103,1.8066400000000002,16.597
0.1,24.0341,3.59789,6.1142,2.7281400000000002,12.8586,5.2597,3.4362800000000004,10.4996,1.82495,16.6214
0.12,23.9853,3.58721,6.1142,2.7373,12.8464,5.25665,3.4362800000000004,10.5011,1.81885,16.6458
0.14,23.9456,3.5856800000000004,6.11725,2.75103,12.8433,5.24597,3.4362800000000004,10.498,1.82037,16.6702
0.16,23.909000000000002,3.5734800000000004,6.11114,2.76324,12.8433,5.24445,3.43475,10.498,1.8219,16.6931
0.18,23.8708,3.5765300000000004,6.1142,2.77545,12.8448,5.24597,3.4393300000000004,10.495,1.8219,16.7191
0.2,23.8312,3.57042,6.1142,2.78613,12.8311,5.24597,3.4378,10.4996,1.8219,16.748
0.22,23.7869,3.5582199999999995,6.11572,2.80139,12.8342,5.24597,3.4362800000000004,10.5011,1.82037,16.7664
0.24,23.7473,3.55974,6.11725,2.8151200000000003,12.8342,5.23224,3.43475,10.4874,1.8219,16.7908
0.26,23.703000000000003,3.55669,6.1142,2.8242700000000003,12.8342,5.23529,3.43475,10.4889,1.8219,16.8045
0.28,23.6633,3.55059,6.1142,2.83953,12.8204,5.23071,3.4362800000000004,10.4874,1.8219,16.8289
0.3,23.6282,3.54906,6.1142,2.8471599999999997,12.822000000000001,5.23224,3.4362800000000004,10.4858,1.82342,16.8427
0.32,23.5886,3.54754,6.1142,2.8471599999999997,12.8082,5.23529,3.4362800000000004,10.4843,1.8219,16.8549
0.34,23.5443,3.54754,6.11572,2.86089,12.8067,5.23682,3.4362800000000004,10.4904,1.82037,16.864
0.36,23.5062,3.54906,6.11267,2.87005,12.8082,5.21851,3.4378,10.4858,1.8219,16.8793
0.38,23.4695,3.53838,6.11267,2.89141,12.7945,5.22003,3.4378,10.4874,1.8219,16.8747
0.4,23.4283,3.53991,6.11114,2.88226,12.7975,5.22003,3.4362800000000004,10.4752,1.82342,16.893
0.42,23.3963,3.53686,6.11725,2.90057,12.7991,5.22156,3.4362800000000004,10.4752,1.82037,16.8915
0.44,23.3582,3.53686,6.1142,2.91277,12.7838,5.22003,3.4378,10.4767,1.82037,16.8991
0.46,23.3337,3.53533,6.1142,2.92193,12.7853,5.22003,3.4362800000000004,10.4752,1.82037,16.9022
0.48,23.2971,3.5261699999999996,6.11267,2.92956,12.7823,5.20935,3.4362800000000004,10.4752,1.82342,16.9006
0.5,23.259,3.52465,6.11114,2.93719,12.7731,5.2124,3.4362800000000004,10.4767,1.8219,16.9022
0.52,23.2254,3.5277,6.11267,2.94787,12.7701,5.21088,3.4332300000000004,10.4797,1.8219,16.89
0.54,23.1888,3.5231199999999996,6.11267,2.94634,12.7701,5.20935,3.4378,10.4736,1.82037,16.8854
0.56,23.1613,3.5231199999999996,6.11267,2.95702,12.7701,5.20782,3.4362800000000004,10.4736,1.82037,16.8884
0.58,23.1232,3.5216,6.11267,2.95855,12.7716,5.20935,3.4393300000000004,10.463,1.82037,16.8762
0.6,23.0957,3.5109199999999996,6.11572,2.97076,12.7563,5.21088,3.4378,10.463,1.82037,16.8671
0.62,23.0621,3.5139699999999996,6.11725,2.96923,12.7609,5.19714,3.4332300000000004,10.463,1.8219,16.8686
0.64,23.0286,3.5109199999999996,6.11267,2.97991,12.7563,5.19409,3.43475,10.463,1.8219,16.8533
0.66,23.0026,3.5139699999999996,6.12793,2.98449,12.7472,5.19867,3.43475,10.466,1.83716,16.8365
0.68,22.9797,3.5139699999999996,6.1264,2.98754,12.7518,5.19867,3.4378,10.4599,1.83411,16.8289
0.7,22.9431,3.49718,6.12488,2.99365,12.7441,5.19562,3.43475,10.4645,1.8325799999999999,16.8167
0.72,22.9172,3.50023,6.12793,2.99517,12.7426,5.20019,3.4378,10.4599,1.8356299999999999,16.7923
0.74,22.8775,3.50176,6.12335,2.9967,12.7365,5.19867,3.4362800000000004,10.4507,1.8356299999999999,16.777
0.76,22.8531,3.4926,6.1264,2.99365,12.738,5.18494,3.43475,10.4523,1.8325799999999999,16.7694
0.78,22.8302,3.48803,6.1264,3.0119599999999997,12.735,5.1818800000000005,3.43475,10.4507,1.8325799999999999,16.745
0.8,22.7936,3.48955,6.1264,3.00738,12.7197,5.18494,3.4378,10.4507,1.83411,16.7221
0.82,22.7661,3.4758199999999997,6.12335,3.00738,12.7213,5.18341,3.4378,10.437000000000001,1.83411,16.7023
0.84,22.7478,3.4804,6.12488,3.01043,12.7106,5.18646,3.4332300000000004,10.4355,1.8325799999999999,16.6809
0.86,22.7219,3.47735,6.12946,3.00585,12.7136,5.17425,3.4378,10.4385,1.83411,16.658
0.88,22.6959,3.4620900000000003,6.12793,3.0028,12.7106,5.1712,3.4362800000000004,10.4416,1.8325799999999999,16.6382
0.9,22.6715,3.4605599999999996,6.1264,3.01959,12.6968,5.17425,3.4378,10.437000000000001,1.8325799999999999,16.6199
0.92,22.641,3.4620900000000003,6.12793,3.0211099999999997,12.6984,5.17425,3.4362800000000004,10.437000000000001,1.83105,16.5939
0.94,22.6074,3.4620900000000003,6.12488,3.0180599999999997,12.6999,5.16357,3.4362800000000004,10.4248,1.83105,16.5695
0.96,22.5861,3.4498800000000003,6.12793,3.01959,12.6831,5.16052,3.43475,10.4248,1.8325799999999999,16.5482
0.98,22.5632,3.4498800000000003,6.1264,3.01959,12.6862,5.16052,3.43475,10.4248,1.8356299999999999,16.5222
1.0,22.5388,3.4498800000000003,6.12946,3.01653,12.6739,5.15747,3.43475,10.4233,1.83411,16.4963
1.02,22.5052,3.4514099999999996,6.1264,3.02264,12.6709,5.16052,3.4362800000000004,10.4279,1.8325799999999999,16.4719
1.04,22.4808,3.4514099999999996,6.1264,3.01959,12.6739,5.16205,3.4362800000000004,10.4294,1.8325799999999999,16.4368
1.06,22.4625,3.43767,6.1264,3.0180599999999997,12.6617,5.14374,3.4378,10.4263,1.8325799999999999,16.4093
1.08,22.4396,3.4392,6.1264,3.0211099999999997,12.6617,5.14679,3.4240699999999995,10.4263,1.8356299999999999,16.3849
1.1,22.4121,3.44225,6.12793,3.01959,12.6617,5.1483099999999995,3.4271199999999995,10.4248,1.83411,16.3666
1.12,22.3892,3.44225,6.1264,3.0150099999999997,12.6465,5.1483099999999995,3.42255,10.4156,1.83411,16.3422
1.14,22.3633,3.43615,6.12488,3.01653,12.648,5.14679,3.4240699999999995,10.4126,1.83716,16.3132
1.16,22.3541,3.4331,6.1264,3.0211099999999997,12.6495,5.14679,3.42255,10.4126,1.83411,16.3025
1.18,22.3282,3.42852,6.12946,3.0180599999999997,12.648,5.14679,3.4256,10.4111,1.83411,16.2781
1.2,22.3053,3.42699,6.12793,3.0211099999999997,12.6404,5.1483099999999995,3.4271199999999995,10.4172,1.8325799999999999,16.2537
1.22,22.2839,3.42699,6.12793,3.01959,12.6373,5.1452599999999995,3.42255,10.4126,1.8325799999999999,16.2277
1.24,22.2672,3.42547,6.1264,3.0211099999999997,12.6358,5.1361099999999995,3.42255,10.4126,1.8356299999999999,16.2048
1.26,22.2443,3.4147800000000004,6.12793,3.00585,12.6236,5.1330599999999995,3.4210199999999995,10.4141,1.83411,16.1789
1.28,22.2198,3.4132599999999997,6.12793,3.00585,12.6221,5.134580000000001,3.4240699999999995,10.4218,1.83411,16.1636
1.3,22.2,3.4147800000000004,6.13556,3.0089,12.6251,5.1361099999999995,3.4240699999999995,10.4263,1.8325799999999999,16.1423
1.32,22.1817,3.4147800000000004,6.13556,3.00585,12.6144,5.137630000000001,3.42255,10.4263,1.83105,16.1163
1.34,22.1603,3.4132599999999997,6.13861,3.0089,12.6099,5.134580000000001,3.4240699999999995,10.4263,1.83105,16.1041
1.36,22.1512,3.41784,6.13708,3.0089,12.6114,5.14069,3.42255,10.4294,1.8356299999999999,16.0934
1.38,22.1344,3.4041,6.13861,3.0089,12.6144,5.134580000000001,3.4256,10.4263,1.8356299999999999,16.0858
1.4,22.1115,3.4041,6.13708,3.0089,12.5977,5.1361099999999995,3.42255,10.4385,1.8356299999999999,16.0706
1.42,22.0947,3.4056300000000004,6.13861,3.00738,12.5992,5.137630000000001,3.4240699999999995,10.4416,1.83411,16.0583
1.44,22.0734,3.4025800000000004,6.13861,2.9967,12.5977,5.1361099999999995,3.4240699999999995,10.4355,1.83411,16.0583
1.46,22.0596,3.39037,6.13556,2.99822,12.5839,5.1239,3.4240699999999995,10.4355,1.8325799999999999,16.0431
1.48,22.0535,3.39037,6.14166,2.99365,12.5885,5.12237,3.4240699999999995,10.4477,1.8356299999999999,16.0461
1.5,22.0261,3.37664,6.13708,2.99822,12.5885,5.1239,3.42255,10.4507,1.8325799999999999,16.0446
1.52,22.0108,3.37664,6.13708,2.9967,12.5748,5.1239,3.4240699999999995,10.4614,1.8356299999999999,16.0431
1.54,21.9894,3.37511,6.13861,2.99517,12.5717,5.12237,3.4240699999999995,10.463,1.8325799999999999,16.0431
1.56,21.9772,3.3644300000000005,6.13861,2.98602,12.561,5.1239,3.4240699999999995,10.4736,1.83716,16.0416
1.58,21.9513,3.3674800000000005,6.13556,2.98449,12.5626,5.1239,3.4240699999999995,10.4767,1.8356299999999999,16.0446
1.6,21.9269,3.36596,6.13861,2.98449,12.5656,5.125430000000001,3.4271199999999995,10.4874,1.83716,16.0553
1.62,21.9116,3.35375,6.14014,2.98144,12.5488,5.125430000000001,3.4240699999999995,10.4843,1.83411,16.066
1.64,21.8918,3.3522199999999995,6.13861,2.98602,12.5519,5.12695,3.42255,10.4996,1.83411,16.069000000000003
1.66,21.8781,3.3507,6.14014,2.98754,12.5504,5.1239,3.4240699999999995,10.498,1.83105,16.0843
1.68,21.8628,3.3552800000000005,6.13861,2.96771,12.5366,5.12085,3.4256,10.5133,1.83411,16.0965
1.7,21.8445,3.34154,6.13861,2.97076,12.5397,5.128480000000001,3.42255,10.5255,1.8325799999999999,16.1041
1.72,21.8307,3.34154,6.14166,2.97076,12.5397,5.1239,3.4271199999999995,10.5286,1.83411,16.1163
1.74,21.8185,3.34459,6.14014,2.96923,12.5397,5.12695,3.42255,10.5362,1.83716,16.1316
1.76,21.8002,3.33849,6.14166,2.97228,12.5229,5.11932,3.42255,10.5469,1.83411,16.153
1.78,21.7926,3.33391,6.14471,2.97076,12.5244,5.10864,3.4271199999999995,10.5606,1.83716,16.1652
1.8,21.7651,3.33086,6.14166,2.97228,12.5214,5.11169,3.42255,10.5743,1.8356299999999999,16.1804
1.82,21.756,3.32781,6.14014,2.97381,12.5107,5.10864,3.4240699999999995,10.5881,1.8325799999999999,16.1911
1.84,21.7438,3.33086,6.13861,2.97381,12.5153,5.11169,3.4271199999999995,10.6094,1.8356299999999999,16.214000000000002
1.86,21.73,3.32934,6.14014,2.96008,12.5031,5.11322,3.4240699999999995,10.6186,1.83105,16.2262
1.88,21.7194,3.31408,6.14166,2.95702,12.4985,5.11017,3.4256,10.6323,1.83716,16.2369
1.9,21.6919,3.31865,6.14014,2.96008,12.4878,5.11017,3.4271199999999995,10.6567,1.83411,16.2506
1.92,21.6827,3.31865,6.13861,2.95855,12.4878,5.11017,3.4240699999999995,10.6705,1.8325799999999999,16.2628
1.94,21.669,3.3156,6.13861,2.96008,12.4771,5.11322,3.4240699999999995,10.6979,1.83716,16.2796
1.96,21.6553,3.31713,6.13861,2.9616,12.4756,5.11169,3.4256,10.7086,1.83411,16.2888
1.98,21.6446,3.3079699999999996,6.14014,2.9555,12.4771,5.12085,3.42255,10.73,1.83411,16.3025
2.0,21.6187,3.3018699999999996,6.13861,2.96008,12.4634,5.125430000000001,3.4256,10.7468,1.8325799999999999,16.3147
2.02,21.6064,3.30645,6.13708,2.95702,12.4634,5.1239,3.4240699999999995,10.7651,1.8356299999999999,16.3284
2.04,21.5958,3.3018699999999996,6.13861,2.96008,12.4664,5.12085,3.4256,10.7941,1.83411,16.3345
2.06,21.581999999999997,3.3034,6.13861,2.96008,12.4634,5.12237,3.42255,10.8047,1.8325799999999999,16.3376
2.08,21.581999999999997,3.2881400000000003,6.14166,2.9555,12.4496,5.1239,3.4240699999999995,10.8292,1.8356299999999999,16.3498
2.1,21.5713,3.29271,6.14014,2.95855,12.4496,5.1239,3.4210199999999995,10.8566,1.8356299999999999,16.3635
2.12,21.5607,3.29271,6.149290000000001,2.95702,12.4512,5.137630000000001,3.4179699999999995,10.8688,1.83411,16.3727
2.14,21.5469,3.29271,6.152340000000001,2.95702,12.439,5.1361099999999995,3.4240699999999995,10.8887,1.83411,16.3757
2.16,21.5347,3.27593,6.1538699999999995,2.95855,12.442,5.137630000000001,3.4256,10.9146,1.83105,16.3849
2.18,21.5363,3.27746,6.1477699999999995,2.95702,12.4405,5.1361099999999995,3.42255,10.9375,1.8356299999999999,16.4001
2.2,21.5225,3.26677,6.1508199999999995,2.9616,12.4268,5.1361099999999995,3.4240699999999995,10.9634,1.83411,16.3986
2.22,21.521,3.2683,6.1538699999999995,2.9616,12.4268,5.1483099999999995,3.4240699999999995,10.9741,1.83411,16.4154
2.24,21.5103,3.25915,6.1508199999999995,2.96008,12.4298,5.1452599999999995,3.4256,10.9985,1.8356299999999999,16.4246
2.26,21.5103,3.25609,6.152340000000001,2.96008,12.4161,5.1483099999999995,3.4271199999999995,11.0214,1.83105,16.423
2.28,21.5134,3.24083,6.152340000000001,2.97076,12.4146,5.16052,3.42255,11.0474,1.8325799999999999,16.4352
2.3,21.5088,3.24083,6.1538699999999995,2.96923,12.4146,5.16205,3.4271199999999995,11.0748,1.83411,16.4398
2.32,21.5088,3.24083,6.152340000000001,2.97228,12.4054,5.159,3.4240699999999995,11.0855,1.83105,16.4368
2.34,21.5088,3.22863,6.149290000000001,2.97381,12.4023,5.1727300000000005,3.42865,11.1099,1.84936,16.449
2.36,21.5225,3.2332099999999997,6.152340000000001,2.97381,12.4039,5.1712,3.41034,11.1191,1.8447900000000002,16.449
2.38,21.5317,3.23015,6.152340000000001,2.96923,12.3917,5.18494,3.40881,11.1481,1.83411,16.4444
2.4,21.55,3.21795,6.152340000000001,2.97076,12.3932,5.18646,3.4149199999999995,11.1588,1.83716,16.4581
2.42,21.5698,3.221,6.1508199999999995,2.97381,12.3901,5.19714,3.41186,11.1832,1.8325799999999999,16.4581
2.44,21.5973,3.2194700000000003,6.149290000000001,2.98296,12.3917,5.19714,3.4149199999999995,11.1969,1.8325799999999999,16.4612
2.46,21.6187,3.221,6.1508199999999995,2.98296,12.3795,5.21088,3.41339,11.2076,1.83411,16.4597
2.48,21.6583,3.20574,6.1569199999999995,2.98449,12.3795,5.20782,3.41034,11.2213,1.8325799999999999,16.4581
2.5,21.6934,3.2072700000000003,6.152340000000001,2.98144,12.380999999999998,5.20935,3.4149199999999995,11.2442,1.8325799999999999,16.4581
2.52,21.7316,3.20421,6.1538699999999995,2.97839,12.3688,5.22003,3.41186,11.2579,1.8478400000000001,16.4597
2.54,21.7682,3.20574,6.1508199999999995,2.98449,12.3657,5.22308,3.41186,11.2717,1.83411,16.4627
2.56,21.816999999999997,3.20421,6.1508199999999995,2.9967,12.3688,5.22461,3.41339,11.2808,1.83411,16.4597
2.58,21.8643,3.19353,6.152340000000001,2.9967,12.352,5.23224,3.41186,11.2915,1.83411,16.4597
2.6,21.906999999999996,3.19506,6.1508199999999995,2.99517,12.3566,5.23376,3.41186,11.3098,1.8325799999999999,16.4597
2.62,21.9757,3.19353,6.1538699999999995,2.9967,12.352,5.23376,3.41339,11.3205,1.8325799999999999,16.4597
2.64,22.0215,3.19353,6.1538699999999995,2.99975,12.3505,5.24292,3.42255,11.3327,1.8325799999999999,16.4642
2.66,22.0856,3.19506,6.1538699999999995,2.99822,12.3398,5.2475,3.4240699999999995,11.3449,1.8325799999999999,16.449
2.68,22.1436,3.18285,6.149290000000001,3.00738,12.3413,5.2475,3.4240699999999995,11.3586,1.83411,16.449
2.7,22.2061,3.1798,6.149290000000001,3.00738,12.3428,5.25513,3.42255,11.3678,1.8325799999999999,16.4505
2.72,22.2687,3.18285,6.149290000000001,3.00738,12.3428,5.25665,3.4240699999999995,11.38,1.8417400000000002,16.4383
2.74,22.3297,3.18438,6.152340000000001,3.00585,12.3291,5.25818,3.4256,11.38,1.83716,16.4383
2.76,22.3892,3.18285,6.1508199999999995,3.00738,12.3276,5.27039,3.42255,11.3892,1.83105,16.423
2.78,22.4518,3.18438,6.1508199999999995,3.00738,12.3291,5.27039,3.4240699999999995,11.4029,1.83411,16.4246
2.8,22.5113,3.17217,6.14166,3.00585,12.3154,5.27649,3.4271199999999995,11.4151,1.8325799999999999,16.4124
2.82,22.5647,3.16912,6.13708,3.0089,12.3215,5.28259,3.4256,11.4166,1.83411,16.4108
2.84,22.6089,3.16912,6.13861,3.0119599999999997,12.3169,5.28107,3.4256,11.4273,1.83411,16.4001
2.86,22.6639,3.17217,6.14166,3.0211099999999997,12.3169,5.28107,3.4240699999999995,11.4273,1.83411,16.3895
2.88,22.7066,3.16912,6.14166,3.01959,12.3077,5.2948,3.4256,11.437999999999999,1.8325799999999999,16.3864
2.9,22.7539,3.15539,6.13861,3.0180599999999997,12.3032,5.2948,3.4271199999999995,11.440999999999999,1.83411,16.3757
2.92,22.8073,3.15386,6.14166,3.02264,12.3077,5.2948,3.4271199999999995,11.4502,1.8325799999999999,16.362000000000002
2.94,22.8439,3.15996,6.14014,3.01959,12.2925,5.30701,3.4271199999999995,11.4502,1.8325799999999999,16.3559
2.96,22.8806,3.1447,6.13861,3.0211099999999997,12.2955,5.31006,3.42255,11.4655,1.8325799999999999,16.3498
2.98,22.9187,3.14318,6.13861,3.0211099999999997,12.294,5.30701,3.4256,11.4655,1.83411,16.3406
3.0,22.9523,3.14318,6.14166,3.0211099999999997,12.290999999999999,5.31311,3.42255,11.4639,1.83411,16.3269
3.02,22.9752,3.1325,6.13861,3.0211099999999997,12.2818,5.31921,3.4271199999999995,11.4639,1.8356299999999999,16.3284
3.04,23.0148,3.12945,6.13861,3.01959,12.2833,5.31921,3.40881,11.467,1.8295299999999999,16.3147
3.06,23.0408,3.13707,6.14014,3.01959,12.2803,5.31616,3.41186,11.4777,1.8325799999999999,16.301
3.08,23.0545,3.13097,6.14166,3.0180599999999997,12.265,5.33447,3.41186,11.4777,1.8325799999999999,16.2964
3.1,23.0759,3.12182,6.14014,3.01959,12.2696,5.32837,3.41186,11.4746,1.83411,16.2903
3.12,23.0865,3.1202900000000002,6.13861,3.0180599999999997,12.2681,5.33142,3.41186,11.4731,1.8325799999999999,16.2765
3.14,23.1018,3.1202900000000002,6.13708,3.0211099999999997,12.2681,5.33447,3.4149199999999995,11.4731,1.8325799999999999,16.2659
3.16,23.1155,3.11876,6.13556,3.0180599999999997,12.2559,5.32989,3.41186,11.4792,1.83411,16.2521
3.18,23.1232,3.1202900000000002,6.13861,3.01959,12.2543,5.336,3.41339,11.4746,1.83411,16.2491
3.2,23.1338,3.10961,6.13861,3.0180599999999997,12.2543,5.33142,3.41186,11.4761,1.83716,16.2369
3.22,23.1384,3.1080799999999997,6.13556,3.00738,12.2589,5.3421,3.41339,11.4777,1.83411,16.2262
3.24,23.1506,3.1050299999999997,6.13708,3.00738,12.2452,5.3421,3.40881,11.4746,1.8325799999999999,16.2155
3.26,23.1628,3.1050299999999997,6.14014,3.00433,12.2452,5.34668,3.41339,11.4777,1.8356299999999999,16.2048
3.28,23.1613,3.10656,6.13861,3.00585,12.2421,5.34668,3.40729,11.4777,1.8325799999999999,16.1942
3.3,23.1613,3.0989299999999997,6.14014,3.00738,12.2452,5.34363,3.40881,11.467,1.83411,16.1774
3.32,23.1735,3.0974,6.13403,3.0028,12.2314,5.3421,3.41339,11.4639,1.8325799999999999,16.1667
3.34,23.175,3.0974,6.13861,3.0089,12.232999999999999,5.34363,3.41186,11.467,1.8295299999999999,16.1545
3.36,23.1873,3.0974,6.13708,3.0089,12.232999999999999,5.34363,3.41034,11.4655,1.83411,16.1468
3.38,23.1842,3.09435,6.13861,2.9967,12.2192,5.34363,3.4149199999999995,11.4624,1.8295299999999999,16.1423
3.4,23.1842,3.0958799999999997,6.13861,2.99517,12.2177,5.34515,3.41034,11.4639,1.83105,16.1301
3.42,23.1827,3.09435,6.13861,2.9967,12.2086,5.36194,3.41186,11.4517,1.8356299999999999,16.1194
3.44,23.1964,3.08062,6.14166,2.99517,12.2055,5.35583,3.41186,11.4532,1.83411,16.1072
3.46,23.1949,3.0821400000000003,6.13861,2.99822,12.1994,5.35736,3.41339,11.4548,1.8356299999999999,16.0919
3.48,23.2132,3.0851900000000003,6.12335,2.98449,12.1963,5.35583,3.4149199999999995,11.4517,1.83105,16.095
3.5,23.2208,3.0851900000000003,6.1264,2.98754,12.1948,5.35583,3.41186,11.4502,1.8295299999999999,16.0812
3.52,23.2361,3.0821400000000003,6.13098,2.98296,12.1826,5.35583,3.41186,11.4426,1.83411,16.0675
3.54,23.2468,3.08367,6.12793,2.98602,12.1826,5.35736,3.41034,11.437999999999999,1.8295299999999999,16.069000000000003
3.56,23.2727,3.08062,6.1264,2.97076,12.1841,5.35736,3.41339,11.4395,1.8325799999999999,16.0599
3.58,23.288,3.0821400000000003,6.1264,2.97228,12.1719,5.35736,3.4149199999999995,11.440999999999999,1.83105,16.0431
3.6,23.3078,3.0684099999999996,6.1264,2.97076,12.1704,5.35583,3.41034,11.440999999999999,1.8325799999999999,16.0461
3.62,23.3337,3.0699400000000003,6.12335,2.97228,12.1719,5.35583,3.40271,11.4502,1.8325799999999999,16.0339
3.64,23.3673,3.0699400000000003,6.12793,2.95855,12.1567,5.35583,3.40271,11.4502,1.8325799999999999,16.0324
3.66,23.3887,3.0699400000000003,6.1264,2.95855,12.1552,5.35889,3.39966,11.4502,1.83411,16.0202
3.68,23.4314,3.0714599999999996,6.1264,2.95855,12.1536,5.368040000000001,3.40118,11.467,1.8325799999999999,16.0187
3.7,23.4711,3.06078,6.1264,2.96008,12.1475,5.3695699999999995,3.39966,11.4639,1.8325799999999999,16.008
3.72,23.5168,3.05925,6.12793,2.94634,12.145999999999999,5.368040000000001,3.39661,11.4777,1.8325799999999999,16.0095
3.74,23.5535,3.06078,6.12946,2.9494,12.1475,5.3665199999999995,3.39966,11.4777,1.8356299999999999,16.011
3.76,23.6038,3.0439999999999996,6.1264,2.94634,12.1338,5.3665199999999995,3.39966,11.4899,1.83411,15.9988
3.78,23.6496,3.0455200000000002,6.12946,2.93871,12.1338,5.3695699999999995,3.40576,11.5021,1.83411,15.9958
3.8,23.7137,3.0455200000000002,6.12488,2.93414,12.1353,5.3695699999999995,3.39966,11.5128,1.8356299999999999,15.9973
3.82,23.761,3.03484,6.12793,2.93261,12.1231,5.3665199999999995,3.39813,11.5265,1.83716,15.9851
