time(s),100348,200437,110401,100081,100083,100087,100085,100082,100080,100084
0.0,18.5028,-1.26814,5.94177,2.07812,10.1593,4.33197,2.3925799999999997,10.228,1.69983,10.7239
0.02,18.4906,-1.26661,5.9433,2.07812,10.1639,4.32739,2.39563,10.2295,1.69983,10.7239
0.04,18.4753,-1.26814,5.94635,2.07812,10.1639,4.32739,2.39563,10.2295,1.6983,10.7224
0.06,18.4662,-1.27272,5.9433,2.0659099999999997,10.1639,4.32739,2.39563,10.2295,1.69983,10.7101
0.08,18.4525,-1.27272,5.94635,2.0659099999999997,10.1501,4.32587,2.39105,10.231,1.69678,10.7147
0.1,18.4402,-1.28034,5.9433,2.0659099999999997,10.1486,4.33044,2.39716,10.228,1.6983,10.7101
0.12,18.4296,-1.2834,5.94025,2.06744,10.1379,4.32739,2.38342,10.228,1.70135,10.7132
0.14,18.4158,-1.28187,5.94482,2.05065,10.141,4.33197,2.38342,10.2188,1.6861,10.6964
0.16,18.4021,-1.28187,5.94177,2.0567599999999997,10.1379,4.32892,2.3819,10.2142,1.6876200000000001,10.6964
0.18,18.3929,-1.28187,5.9433,2.05218,10.1257,4.32892,2.38342,10.2188,1.68915,10.700999999999999
0.2,18.3807,-1.28492,5.9433,2.0567599999999997,10.1257,4.32892,2.38342,10.2142,1.6815200000000001,10.6873
0.22,18.367,-1.28034,5.94177,2.0415,10.1273,4.32587,2.3819,10.2158,1.6845700000000001,10.6857
0.24,18.3563,-1.29255,5.9433,2.0415,10.1135,4.33197,2.38037,10.2173,1.6876200000000001,10.6735
0.26,18.335,-1.29255,5.94635,2.0430200000000003,10.1151,4.32892,2.38342,10.2203,1.6845700000000001,10.6705
0.28,18.3182,-1.2956,5.94025,2.03845,10.1059,4.33044,2.38495,10.202,1.6845700000000001,10.6781
0.3,18.305999999999997,-1.29255,5.9433,2.0415,10.1028,4.32739,2.38037,10.202,1.6876200000000001,10.6598
0.32,18.2831,-1.29255,5.94177,2.0308200000000003,10.1044,4.32892,2.3819,10.2036,1.6845700000000001,10.6613
0.34,18.2693,-1.29713,5.94177,2.02929,10.1044,4.32892,2.38495,10.2051,1.6845700000000001,10.6598
0.36,18.2449,-1.29255,5.94482,2.02929,10.0861,4.32739,2.38495,10.2036,1.6861,10.6522
0.38,18.2312,-1.3062799999999999,5.94482,2.02624,10.0906,4.33197,2.3819,10.2066,1.6861,10.6491
0.4,18.2114,-1.3062799999999999,5.9433,2.01556,10.0906,4.32739,2.38495,10.2036,1.6845700000000001,10.6491
0.42,18.1854,-1.3062799999999999,5.94025,2.01556,10.0906,4.33044,2.38037,10.2036,1.6906700000000001,10.6476
0.44,18.1732,-1.31697,5.94177,2.01708,10.0754,4.33044,2.38495,10.2066,1.6861,10.6491
0.46,18.1473,-1.32002,5.9433,2.01556,10.0769,4.32892,2.38495,10.2066,1.68304,10.6384
0.48,18.1381,-1.31849,5.94177,2.01708,10.0815,4.32739,2.38495,10.1913,1.6861,10.6369
0.5,18.1229,-1.33375,5.9433,2.00335,10.0769,4.31366,2.3819,10.1944,1.6845700000000001,10.6369
0.52,18.1091,-1.32917,5.94635,2.00335,10.0662,4.31671,2.38342,10.1898,1.6876200000000001,10.64
0.54,18.0878,-1.32917,5.93872,2.00335,10.0662,4.31671,2.38342,10.1944,1.6861,10.6384
0.56,18.0725,-1.32917,5.94177,1.9880900000000001,10.0647,4.31824,2.38342,10.1898,1.68304,10.6232
0.58,18.0603,-1.3307,5.94177,1.9926700000000002,10.0662,4.31366,2.38495,10.1913,1.68304,10.6262
0.6,18.0496,-1.34443,5.94025,1.9911400000000001,10.054,4.31671,2.3819,10.1883,1.68915,10.6232
0.62,18.0374,-1.34291,5.94025,1.9789400000000001,10.0525,4.31824,2.3819,10.1944,1.6861,10.614
0.64,18.0222,-1.34138,5.94482,1.9804599999999999,10.054,4.31824,2.38495,10.1898,1.6845700000000001,10.610999999999999
0.66,18.0084,-1.34138,5.9433,1.9789400000000001,10.0555,4.31671,2.38342,10.1898,1.6861,10.614
0.68,17.9886,-1.34291,5.94482,1.9819900000000001,10.0555,4.31366,2.38495,10.1898,1.68915,10.610999999999999
0.7,17.9764,-1.34443,5.9433,1.9728299999999999,10.054,4.32129,2.38495,10.1913,1.68304,10.6003
0.72,17.9642,-1.34901,5.94177,1.9697799999999999,10.0525,4.31824,2.36511,10.1913,1.6861,10.6018
0.74,17.9489,-1.35664,5.9433,1.9667299999999999,10.054,4.32129,2.36816,10.1944,1.6845700000000001,10.6003
0.76,17.9413,-1.35664,5.9433,1.9667299999999999,10.0525,4.31671,2.3727400000000003,10.1898,1.6845700000000001,10.5896
0.78,17.9245,-1.35511,5.9433,1.9652,10.054,4.31976,2.3666400000000003,10.1883,1.6861,10.5881
0.8,17.9138,-1.35511,5.94177,1.9667299999999999,10.0555,4.31671,2.3696900000000003,10.2036,1.6845700000000001,10.5911
0.82,17.9016,-1.35359,5.9433,1.953,10.0555,4.315180000000001,2.3696900000000003,10.2036,1.6861,10.5865
0.84,17.8894,-1.35664,5.94482,1.95757,10.0525,4.31671,2.3696900000000003,10.2051,1.6876200000000001,10.5774
0.86,17.8925,-1.36579,5.94025,1.95605,10.0555,4.31671,2.3727400000000003,10.2173,1.68915,10.5789
0.88,17.8787,-1.36579,5.94177,1.95452,10.0632,4.31671,2.37122,10.2173,1.68304,10.5743
0.9,17.8635,-1.36427,5.94482,1.95757,10.0647,4.315180000000001,2.37122,10.231,1.6876200000000001,10.5759
0.92,17.8543,-1.36579,5.94482,1.95605,10.0784,4.31671,2.3696900000000003,10.228,1.68915,10.5682
0.94,17.8406,-1.36732,5.9433,1.94232,10.0891,4.31976,2.3666400000000003,10.2417,1.6861,10.5621
0.96,17.8421,-1.36885,5.94177,1.94537,10.1028,4.31671,2.37122,10.2432,1.6861,10.5637
0.98,17.8284,-1.36885,5.94177,1.94232,10.112,4.31976,2.3696900000000003,10.2524,1.6845700000000001,10.5621
1.0,17.8207,-1.36732,5.94025,1.9438400000000002,10.1212,4.31976,2.3757900000000003,10.2631,1.6876200000000001,10.5545
1.02,17.804000000000002,-1.37953,5.94177,1.94232,10.1532,4.315180000000001,2.3696900000000003,10.2783,1.6876200000000001,10.552999999999999
1.04,17.7933,-1.38258,5.94177,1.94537,10.173,4.31671,2.36816,10.2921,1.6861,10.552999999999999
1.06,17.778,-1.3780000000000001,5.9433,1.9392599999999998,10.199,4.315180000000001,2.3727400000000003,10.3012,1.6876200000000001,10.5499
1.08,17.7551,-1.37953,5.94177,1.9438400000000002,10.2264,4.31671,2.3666400000000003,10.3134,1.6845700000000001,10.5438
1.1,17.7414,-1.38105,5.9433,1.94537,10.2615,4.31824,2.3696900000000003,10.3317,1.6876200000000001,10.5392
1.12,17.7307,-1.37953,5.94177,1.9438400000000002,10.2966,4.31824,2.37122,10.3424,1.6876200000000001,10.5408
1.14,17.717,-1.38258,5.94482,1.94232,10.3333,4.315180000000001,2.3696900000000003,10.3531,1.6861,10.5423
1.16,17.7078,-1.39021,5.94025,1.94537,10.3821,4.31824,2.3666400000000003,10.3775,1.6876200000000001,10.5423
1.18,17.6788,-1.39021,5.94177,1.9468900000000002,10.4248,4.31671,2.3727400000000003,10.3912,1.6861,10.5301
1.2,17.6712,-1.39326,5.94177,1.94232,10.4706,4.31824,2.37122,10.4111,1.68304,10.5316
1.22,17.6712,-1.39173,5.94025,1.94232,10.527000000000001,4.31671,2.37427,10.4385,1.6876200000000001,10.5286
1.24,17.6544,-1.39021,5.94177,1.94537,10.5804,4.31671,2.3727400000000003,10.4477,1.6876200000000001,10.5301
1.26,17.6468,-1.40394,5.94635,1.9438400000000002,10.6369,4.315180000000001,2.3727400000000003,10.4767,1.6861,10.5255
1.28,17.6346,-1.40394,5.94635,1.9407900000000002,10.6888,4.309080000000001,2.3696900000000003,10.4996,1.6861,10.5148
1.3,17.6361,-1.40394,5.9433,1.95605,10.7513,4.30756,2.3696900000000003,10.5118,1.6876200000000001,10.5164
1.32,17.6208,-1.40547,5.94177,1.95452,10.8109,4.30145,2.37732,10.5347,1.6845700000000001,10.5179
1.34,17.6071,-1.40394,5.94025,1.953,10.8627,4.30145,2.37122,10.5606,1.6876200000000001,10.5194
1.36,17.6086,-1.40089,5.94482,1.95147,10.9253,4.30145,2.3696900000000003,10.582,1.6845700000000001,10.5011
1.38,17.5964,-1.41767,5.94482,1.96826,10.9817,4.30756,2.37122,10.6094,1.6876200000000001,10.5041
1.4,17.5949,-1.41615,5.94482,1.9697799999999999,11.0306,4.3045,2.36053,10.6354,1.6876200000000001,10.5026
1.42,17.5858,-1.4131,5.9433,1.9652,11.0825,4.30756,2.35443,10.6552,1.6876200000000001,10.5041
1.44,17.5842,-1.4131,5.9433,1.9789400000000001,11.1343,4.30145,2.35748,10.6827,1.6861,10.4858
1.46,17.572,-1.41767,5.94177,1.9926700000000002,11.1801,4.302980000000001,2.36206,10.7071,1.6906700000000001,10.4904
1.48,17.5735,-1.41462,5.9433,1.99725,11.2259,4.3045,2.36206,10.7254,1.6845700000000001,10.4904
1.5,17.5735,-1.41462,5.9433,2.00335,11.2808,4.3045,2.35901,10.7559,1.6861,10.4874
1.52,17.5613,-1.4268299999999998,5.93872,2.01556,11.3098,4.3045,2.36053,10.7773,1.6861,10.4797
1.54,17.5613,-1.4268299999999998,5.94177,2.01708,11.3632,4.306030000000001,2.36053,10.8047,1.68915,10.4752
1.56,17.5598,-1.4268299999999998,5.94177,2.02776,11.3983,4.302980000000001,2.35748,10.8276,1.6861,10.4828
1.58,17.5613,-1.4298799999999998,5.9433,2.0415,11.4349,4.306030000000001,2.36206,10.8505,1.68304,10.4813
1.6,17.5613,-1.4298799999999998,5.94177,2.0430200000000003,11.4731,4.3045,2.35748,10.8749,1.6845700000000001,10.4782
1.62,17.5491,-1.4298799999999998,5.94177,2.0567599999999997,11.5112,4.3045,2.35748,10.9024,1.6861,10.4675
1.64,17.5507,-1.4268299999999998,5.94177,2.0659099999999997,11.5433,4.306030000000001,2.35748,10.9253,1.68915,10.466
1.66,17.5491,-1.4298799999999998,5.94482,2.06439,11.5707,4.3045,2.36053,10.9512,1.6861,10.4645
1.68,17.5476,-1.44056,5.94025,2.07507,11.6043,4.306030000000001,2.36206,10.9756,1.6876200000000001,10.466
1.7,17.5507,-1.4420899999999999,5.94635,2.09033,11.6318,4.302980000000001,2.35596,11.0016,1.6861,10.466
1.72,17.5476,-1.44361,5.9433,2.10101,11.6684,4.30756,2.35748,11.0275,1.6845700000000001,10.4675
1.74,17.5476,-1.44056,5.9433,2.10406,11.6913,4.302980000000001,2.36206,11.0474,1.6876200000000001,10.4691
1.76,17.5354,-1.4451399999999999,5.9433,2.11321,11.7172,4.306030000000001,2.35901,11.0687,1.6861,10.4584
1.78,17.5339,-1.44056,5.94635,2.12847,11.7416,4.3045,2.35748,11.0825,1.6845700000000001,10.4568
1.8,17.5385,-1.43598,5.9555,2.14221,11.7661,4.3045,2.35901,11.113,1.6861,10.4538
1.82,17.5354,-1.4542899999999999,5.9555,2.14983,11.7889,4.3045,2.35901,11.1374,1.6876200000000001,10.4553
1.84,17.5507,-1.4542899999999999,5.9539800000000005,2.14983,11.8011,4.3045,2.35901,11.1588,1.6861,10.4553
1.86,17.5476,-1.4558200000000001,5.9539800000000005,2.16509,11.8301,4.3045,2.35901,11.1725,1.6845700000000001,10.4538
1.88,17.5476,-1.4542899999999999,5.9555,2.1773,11.853,4.302980000000001,2.36053,11.1938,1.6876200000000001,10.4568
1.9,17.5598,-1.4527700000000001,5.9570300000000005,2.18951,11.8652,4.302980000000001,2.35748,11.2198,1.6845700000000001,10.4523
1.92,17.5598,-1.46498,5.9555,2.20324,11.8896,4.306030000000001,2.35748,11.232000000000001,1.6845700000000001,10.4507
1.94,17.5751,-1.4665,5.9539800000000005,2.20324,11.9125,4.3045,2.34528,11.261,1.6861,10.4538
1.96,17.5858,-1.46498,5.9555,2.21087,11.9263,4.3045,2.3468,11.2732,1.6861,10.4553
1.98,17.5842,-1.4604,5.9539800000000005,2.22308,11.9476,4.306030000000001,2.34833,11.2991,1.6861,10.4568
2.0,17.598,-1.4665,5.9555,2.23528,11.9629,4.30145,2.34375,11.3052,1.68304,10.466
2.02,17.6102,-1.4665,5.958559999999999,2.2337599999999997,11.9919,4.3045,2.34833,11.3327,1.6845700000000001,10.4645
2.04,17.6208,-1.4665,5.95245,2.2490200000000002,11.9995,4.302980000000001,2.34833,11.3434,1.6861,10.4645
2.06,17.6224,-1.47566,5.9555,2.2612200000000002,12.0163,4.309080000000001,2.3468,11.3632,1.68304,10.466
2.08,17.6285,-1.47718,5.9555,2.2719099999999997,12.0224,4.306030000000001,2.34528,11.377,1.68304,10.4691
2.1,17.6453,-1.48023,5.9570300000000005,2.27648,12.0361,4.306030000000001,2.34833,11.3922,1.6876200000000001,10.4767
2.12,17.659000000000002,-1.47871,5.95245,2.2841099999999996,12.0483,4.29535,2.3468,11.4059,1.6876200000000001,10.4752
2.14,17.6697,-1.47718,5.9539800000000005,2.29632,12.0575,4.293819999999999,2.34833,11.4288,1.6815200000000001,10.4782
2.16,17.6834,-1.47718,5.9555,2.31005,12.0605,4.293819999999999,2.34833,11.4426,1.6861,10.4813
2.18,17.6971,-1.49244,5.9555,2.32531,12.0712,4.2923,2.3468,11.4502,1.6876200000000001,10.4889
2.2,17.7063,-1.49092,5.9539800000000005,2.32226,12.088,4.29535,2.34528,11.467,1.6845700000000001,10.4919
2.22,17.72,-1.49244,5.96924,2.3329400000000002,12.1124,4.290769999999999,2.34528,11.4777,1.6876200000000001,10.4889
2.24,17.7353,-1.48939,5.96466,2.3482,12.1216,4.296869999999999,2.34833,11.4929,1.6861,10.4889
2.26,17.7551,-1.49092,5.9631300000000005,2.34515,12.1323,4.293819999999999,2.3468,11.5067,1.6876200000000001,10.5041
2.28,17.7658,-1.49092,5.96619,2.35888,12.1429,4.293819999999999,2.3468,11.5021,1.6876200000000001,10.5026
2.3,17.7765,-1.49092,5.96619,2.36041,12.1719,4.2923,2.3468,11.5128,1.68915,10.5057
2.32,17.7933,-1.49855,5.96771,2.37109,12.1918,4.28925,2.3468,11.527999999999999,1.6845700000000001,10.5148
2.34,17.8024,-1.50312,5.96924,2.37109,12.2116,4.290769999999999,2.3468,11.525,1.6876200000000001,10.5164
2.36,17.804000000000002,-1.5016,5.97076,2.38329,12.2269,4.2923,2.3468,11.5387,1.6845700000000001,10.5301
2.38,17.8177,-1.5016,5.96771,2.38177,12.2467,4.28925,2.34833,11.5372,1.6876200000000001,10.527000000000001
2.4,17.8314,-1.5016,5.97076,2.39398,12.2696,4.28925,2.34528,11.5509,1.68304,10.5377
2.42,17.8406,-1.50465,5.96924,2.39855,12.294,4.29535,2.3468,11.5479,1.6861,10.5362
2.44,17.8436,-1.5016,5.96924,2.40771,12.3077,4.3045,2.34528,11.5631,1.6861,10.552999999999999
2.46,17.8543,-1.50312,5.96771,2.41229,12.3291,4.3045,2.34833,11.5616,1.6861,10.5499
2.48,17.868,-1.5153299999999998,5.96619,2.41076,12.3505,4.306030000000001,2.3468,11.5753,1.6861,10.5637
2.5,17.8772,-1.5138,5.9631300000000005,2.4199200000000003,12.3779,4.3045,2.34528,11.5753,1.68915,10.5774
2.52,17.8925,-1.5153299999999998,5.96466,2.4229700000000003,12.4008,4.3045,2.3468,11.5738,1.6861,10.5759
2.54,17.9153,-1.51075,5.96619,2.4199200000000003,12.4268,4.3045,2.3468,11.5738,1.6815200000000001,10.5881
2.56,17.926,-1.5153299999999998,5.97229,2.43365,12.4542,4.302980000000001,2.3468,11.585999999999999,1.6861,10.5988
2.58,17.9398,-1.5138,5.96924,2.4306,12.4756,4.30756,2.34985,11.5921,1.6876200000000001,10.6003
2.6,17.9535,-1.52449,5.96466,2.43365,12.5122,4.302980000000001,2.33459,11.5875,1.6876200000000001,10.6125
2.62,17.9749,-1.52601,5.96924,2.4489099999999997,12.5381,4.31976,2.33612,11.585999999999999,1.6845700000000001,10.6247
2.64,17.9871,-1.52754,5.97992,2.4458599999999997,12.5687,4.31824,2.33612,11.5875,1.6815200000000001,10.6369
2.66,18.0115,-1.52754,5.9845,2.44738,12.5992,4.31671,2.33459,11.5875,1.6845700000000001,10.6491
2.68,18.0206,-1.52906,5.97992,2.4428,12.6221,4.31976,2.33612,11.589,1.6876200000000001,10.6628
2.7,18.0344,-1.52601,5.98297,2.4550099999999997,12.648,4.33197,2.33612,11.5875,1.68915,10.675
2.72,18.0603,-1.5397399999999999,5.9845,2.4580599999999997,12.6709,4.33197,2.33459,11.5875,1.6845700000000001,10.6888
2.74,18.074,-1.5351700000000001,5.97839,2.4550099999999997,12.6984,4.33044,2.33459,11.5875,1.6876200000000001,10.6964
2.76,18.0847,-1.5382200000000001,5.98144,2.4580599999999997,12.7228,4.34265,2.33459,11.5875,1.6845700000000001,10.7132
2.78,18.1015,-1.5397399999999999,5.97839,2.45959,12.7441,4.34112,2.33612,11.5753,1.68304,10.7224
2.8,18.1091,-1.5397399999999999,5.97992,2.47332,12.7808,4.34112,2.33307,11.5723,1.6906700000000001,10.7361
2.82,18.1244,-1.53669,5.98297,2.47027,12.8082,4.3518099999999995,2.33765,11.5768,1.68304,10.7468
2.84,18.1351,-1.5382200000000001,5.97992,2.46874,12.8372,4.3548599999999995,2.33307,11.5707,1.67389,10.7574
2.86,18.1427,-1.55348,5.98297,2.47027,12.8677,4.3518099999999995,2.3468,11.5738,1.6723599999999998,10.7712
2.88,18.1473,-1.55195,5.97992,2.4718,12.8891,4.36554,2.34833,11.5753,1.67694,10.7834
2.9,18.1595,-1.55195,5.97992,2.46874,12.9272,4.36554,2.3468,11.5616,1.67389,10.7971
2.92,18.1747,-1.55195,5.97839,2.48248,12.9517,4.37775,2.34528,11.5616,1.67389,10.8093
2.94,18.1702,-1.55043,5.97839,2.48248,12.9791,4.37775,2.34375,11.5601,1.67389,10.8231
2.96,18.1854,-1.55195,5.97992,2.48248,13.0127,4.37622,2.3468,11.5646,1.6723599999999998,10.8337
2.98,18.1839,-1.55043,5.97534,2.48248,13.0356,4.3884300000000005,2.34833,11.5524,1.6754099999999998,10.8414
3.0,18.1961,-1.55348,5.97839,2.47942,13.0615,4.38995,2.34375,11.5463,1.67389,10.8582
3.02,18.1976,-1.56111,5.98144,2.484,13.0859,4.4006300000000005,2.3468,11.5509,1.67389,10.8704
3.04,18.1946,-1.56263,5.99213,2.48248,13.120999999999999,4.40216,2.34833,11.5417,1.6754099999999998,10.8841
3.06,18.1961,-1.56263,5.99213,2.484,13.1515,4.40521,2.34833,11.5372,1.6754099999999998,10.880999999999998
3.08,18.1946,-1.56263,5.9906,2.48248,13.1729,4.41437,2.34528,11.5356,1.6754099999999998,10.8963
3.1,18.1854,-1.56416,5.98907,2.49468,13.1943,4.41284,2.3468,11.5295,1.67389,10.9085
3.12,18.1824,-1.56874,5.9906,2.49621,13.2217,4.42657,2.3468,11.527999999999999,1.67389,10.907
3.14,18.1839,-1.56568,5.99213,2.49316,13.2309,4.42963,2.3468,11.5158,1.67389,10.9161
3.16,18.1854,-1.57179,5.99365,2.49163,13.2568,4.43573,2.34833,11.5128,1.6784700000000001,10.9329
3.18,18.187,-1.57331,5.9906,2.49621,13.2843,4.43878,2.34833,11.499,1.67084,10.9329
3.2,18.1976,-1.57484,5.99365,2.49316,13.3087,4.44794,2.34528,11.5021,1.6754099999999998,10.9451
3.22,18.1976,-1.57637,5.99518,2.49316,13.3209,4.44946,2.34833,11.4883,1.67389,10.9436
3.24,18.1961,-1.57637,5.98907,2.49468,13.3423,4.45251,2.3468,11.4914,1.67389,10.9573
3.26,18.1961,-1.57637,5.9906,2.49316,13.3545,4.46472,2.34985,11.4761,1.67389,10.9558
3.28,18.1961,-1.57484,5.9906,2.49468,13.3698,4.46777,2.34833,11.4655,1.67389,10.9573
3.3,18.2098,-1.58857,5.9967,2.49316,13.382,4.4632,2.34528,11.4624,1.6723599999999998,10.9665
3.32,18.2098,-1.58552,5.99518,2.49468,13.3896,4.4754,2.34528,11.4517,1.6754099999999998,10.9711
3.34,18.2114,-1.58705,5.9906,2.49468,13.4048,4.4754,2.34985,11.4532,1.67389,10.968
3.36,18.2098,-1.5901,5.9906,2.49621,13.4201,4.4754,2.3468,11.4426,1.6723599999999998,10.9695
3.38,18.2068,-1.58857,5.99518,2.49468,13.4308,4.48914,2.34528,11.440999999999999,1.67389,10.9817
3.4,18.2236,-1.5901,6.00433,2.49621,13.443,4.48914,2.34985,11.4288,1.67389,10.9802
3.42,18.2175,-1.6023100000000001,6.00281,2.49621,13.4445,4.48914,2.3468,11.4151,1.67694,10.9817
3.44,18.2205,-1.5977299999999999,6.00433,2.49163,13.4521,4.50134,2.34528,11.4136,1.67389,10.9802
3.46,18.2205,-1.6023100000000001,6.00586,2.49468,13.4537,4.50134,2.34985,11.3998,1.67389,10.994000000000002
3.48,18.2205,-1.5977299999999999,6.00281,2.49621,13.4674,4.50134,2.3468,11.4059,1.67389,10.994000000000002
3.5,18.2251,-1.6007799999999999,6.00586,2.49468,13.4689,4.49982,2.35901,11.3922,1.67389,10.9924
3.52,18.2327,-1.5977299999999999,6.00128,2.49468,13.4781,4.51202,2.36053,11.3892,1.67389,10.9894
3.54,18.2358,-1.5977299999999999,6.00281,2.49621,13.4811,4.5105,2.36053,11.38,1.6723599999999998,10.9924
3.56,18.2358,-1.6114600000000001,5.99976,2.49621,13.4811,4.51202,2.36053,11.38,1.6754099999999998,10.9909
3.58,18.2343,-1.6099299999999999,6.00433,2.49621,13.4827,4.51202,2.36053,11.3678,1.67999,10.9924
3.6,18.2343,-1.6099299999999999,6.00586,2.49163,13.4781,4.5227,2.35748,11.3678,1.67694,10.9955
3.62,18.2327,-1.6114600000000001,6.00433,2.49621,13.4796,4.52576,2.36206,11.3541,1.67389,10.9909
3.64,18.2327,-1.62519,6.00586,2.49621,13.4827,4.5227,2.35901,11.3525,1.67389,10.9787
3.66,18.222,-1.62519,6.00281,2.49163,13.4796,4.52576,2.35901,11.3419,1.6754099999999998,10.9802
3.68,18.2175,-1.62519,6.00738,2.49621,13.4674,4.52728,2.35748,11.3419,1.67389,10.9772
3.7,18.2098,-1.6236700000000002,6.00433,2.49163,13.4644,4.52728,2.35901,11.3312,1.67084,10.9817
3.72,18.2098,-1.6236700000000002,6.00738,2.49621,13.4689,4.5227,2.35901,11.3281,1.6754099999999998,10.9634
3.74,18.1976,-1.6358700000000002,6.00128,2.49468,13.4537,4.5227,2.35901,11.319,1.6754099999999998,10.9695
3.76,18.1854,-1.6358700000000002,6.00433,2.4977400000000003,13.4567,4.53796,2.35443,11.3174,1.67389,10.968
3.78,18.1702,-1.63435,6.00738,2.49163,13.443,4.54102,2.35901,11.3083,1.6754099999999998,10.9558
3.8,18.1717,-1.6374,6.00281,2.49316,13.4293,4.53796,2.35901,11.3083,1.6723599999999998,10.9558
3.82,18.1595,-1.63893,6.00433,2.4977400000000003,13.4277,4.53796,2.35901,11.2946,1.6723599999999998,10.9573
3.84,18.1473,-1.6358700000000002,6.01654,2.49621,13.4171,4.53644,2.36206,11.2839,1.6754099999999998,10.9558
3.86,18.1442,-1.6374,6.01501,2.49011,13.4064,4.53796,2.35901,11.2823,1.67389,10.9451
3.88,18.1366,-1.64503,6.01654,2.49468,13.3926,4.53796,2.35901,11.2701,1.6754099999999998,10.9421
3.9,18.1366,-1.64808,6.01654,2.48248,13.382,4.53644,2.35901,11.2686,1.67084,10.9421
3.92,18.1213,-1.64503,6.01807,2.484,13.3682,4.53491,2.35748,11.2549,1.67389,10.9314
3.94,18.1213,-1.65113,6.01807,2.48248,13.3591,4.53491,2.36053,11.2564,1.67389,10.9329
3.96,18.1183,-1.64808,6.01807,2.48095,13.3453,4.53339,2.35596,11.2579,1.6723599999999998,10.9207
