time(s),110449,100307,200391,100314,100309,100310,100312,100313,100308,100311
0.0,27.886999999999997,6.11267,11.7111,7.707210000000001,9.89075,4.79584,11.0397,14.061,3.58581,1.57623
0.02,27.8641,6.1142,11.702,7.70264,9.89075,4.79431,11.0413,14.0656,3.57208,1.57623
0.04,27.8366,6.11572,11.6974,7.707210000000001,9.89227,4.79736,11.0291,14.0671,3.57361,1.57471
0.06,27.8152,6.11572,11.702,7.707210000000001,9.89532,4.80041,11.0321,14.0503,3.57361,1.57776
0.08,27.7908,6.11725,11.6913,7.707210000000001,9.89075,4.79889,11.0184,14.0518,3.57361,1.57776
0.1,27.7649,6.1203,11.6882,7.70264,9.89075,4.79584,11.0046,14.0533,3.56903,1.57623
0.12,27.741999999999997,6.11572,11.6867,7.704160000000001,9.90295,4.79584,11.0016,14.0503,3.57208,1.57776
0.14,27.7161,6.11877,11.675999999999998,7.70569,9.8999,4.79431,10.9879,14.0518,3.57513,1.57623
0.16,27.6947,6.12183,11.6791,7.707210000000001,9.90295,4.79889,10.9802,14.0518,3.57361,1.57471
0.18,27.6718,6.1142,11.6638,7.70569,9.90448,4.79736,10.9665,14.0549,3.57208,1.57776
0.2,27.655,6.11725,11.6638,7.704160000000001,9.90601,4.79584,10.968,14.0533,3.57666,1.57623
0.22,27.6306,6.1142,11.6531,7.704160000000001,9.90295,4.79584,10.9543,14.0366,3.57513,1.57623
0.24,27.6062,6.11725,11.6531,7.707210000000001,9.90753,4.79584,10.9451,14.0411,3.57056,1.57471
0.26,27.5879,6.11572,11.6547,7.707210000000001,9.90448,4.79431,10.9421,14.0411,3.57208,1.57471
0.28,27.5604,6.11877,11.6394,7.704160000000001,9.90295,4.79889,10.9299,14.0396,3.57361,1.57776
0.3,27.533,6.11725,11.6394,7.704160000000001,9.90601,4.79279,10.9299,14.0366,3.57208,1.57318
0.32,27.4948,6.11877,11.6257,7.70264,9.90753,4.79431,10.9192,14.0381,3.57208,1.57623
0.34,27.4704,6.11572,11.6302,7.70569,9.90295,4.79431,10.9177,14.0274,3.57513,1.57471
0.36,27.445999999999998,6.1203,11.6119,7.70569,9.90448,4.79584,10.9039,14.0274,3.57361,1.57623
0.38,27.4231,6.11725,11.6119,7.70569,9.90295,4.79431,10.9055,14.0244,3.57208,1.57776
0.4,27.3987,6.11725,11.6013,7.70569,9.90295,4.79584,10.8902,14.0289,3.57208,1.57471
0.42,27.3712,6.11572,11.6028,7.70874,9.90295,4.79736,10.8948,14.0274,3.57361,1.57928
0.44,27.3651,6.11877,11.5906,7.70569,9.90448,4.79584,10.8826,14.0137,3.57208,1.57928
0.46,27.3361,6.1203,11.5936,7.704160000000001,9.90601,4.79431,10.8841,14.0152,3.56445,1.57776
0.48,27.3132,6.1142,11.5768,7.707210000000001,9.90295,4.79431,10.8688,14.0152,3.5598699999999996,1.57928
0.5,27.2888,6.11267,11.5784,7.70569,9.90295,4.79736,10.8688,14.0137,3.55835,1.57623
0.52,27.2659,6.11267,11.5677,7.707210000000001,9.90143,4.79584,10.8673,14.0167,3.56445,1.57471
0.54,27.2522,6.11725,11.5662,7.707210000000001,9.90295,4.79431,10.8582,14.0121,3.5614,1.57776
0.56,27.2263,6.11725,11.5509,7.70264,9.90295,4.79279,10.8597,14.0137,3.56598,1.57623
0.58,27.2003,6.11725,11.5494,7.70569,9.90448,4.79584,10.8582,14.0152,3.5598699999999996,1.57623
0.6,27.179000000000002,6.11725,11.554,7.704160000000001,9.90295,4.79431,10.8475,14.0152,3.5614,1.57928
0.62,27.1561,6.11572,11.5433,7.70874,9.90295,4.79584,10.8444,14.0167,3.5614,1.57623
0.64,27.1378,6.11725,11.5448,7.70569,9.91669,4.79431,10.8459,14.0015,3.56293,1.57318
0.66,27.1164,6.11572,11.5402,7.70569,9.91516,4.79736,10.8307,14.003,3.56293,1.57623
0.68,27.092,6.11877,11.527999999999999,7.704160000000001,9.91516,4.79584,10.8353,14.003,3.5614,1.57471
0.7,27.0752,6.1142,11.5311,7.707210000000001,9.91669,4.79889,10.8322,14.003,3.56293,1.57471
0.72,27.0538,6.10352,11.5295,7.70569,9.91516,4.79279,10.8185,14.0015,3.5598699999999996,1.58081
0.74,27.0355,6.10504,11.5173,7.70874,9.91363,4.79889,10.82,13.9999,3.56445,1.57623
0.76,27.0203,6.10504,11.5143,7.70874,9.91669,4.79584,10.8078,14.0015,3.56293,1.57623
0.78,27.005,6.10657,11.5189,7.704160000000001,9.91363,4.79431,10.8093,14.0045,3.55835,1.57776
0.8,26.9852,6.10352,11.5051,7.707210000000001,9.91516,4.79584,10.8078,14.003,3.56445,1.57318
0.82,26.9714,6.11572,11.5067,7.70569,9.91211,4.79431,10.7971,14.0015,3.5598699999999996,1.57471
0.84,26.9485,6.1203,11.5005,7.704160000000001,9.91363,4.79584,10.7956,13.9923,3.56445,1.57165
0.86,26.9302,6.11572,11.4929,7.707210000000001,9.91821,4.79736,10.7941,13.9893,3.5614,1.57623
0.88,26.9211,6.11572,11.4929,7.704160000000001,9.91363,4.79431,10.7834,13.9877,3.56445,1.57776
0.9,26.8951,6.11572,11.4929,7.704160000000001,9.91516,4.79431,10.7834,13.9923,3.5614,1.57776
0.92,26.8738,6.11572,11.4883,7.70569,9.91516,4.79584,10.7849,13.9877,3.56445,1.57318
0.94,26.8631,6.11725,11.4792,7.70569,9.91516,4.79584,10.7727,13.9923,3.5507199999999997,1.57318
0.96,26.8356,6.1142,11.4807,7.707210000000001,9.91821,4.79431,10.7712,13.9938,3.5476699999999997,1.57471
0.98,26.8219,6.11725,11.4838,7.70569,9.91516,4.79736,10.7727,13.9908,3.5507199999999997,1.57776
1.0,26.8005,6.11725,11.4655,7.70874,9.91516,4.79584,10.7727,13.9908,3.5507199999999997,1.57471
1.02,26.7853,6.10504,11.467,7.69348,9.91516,4.79431,10.7574,13.9816,3.5507199999999997,1.57165
1.04,26.7624,6.10046,11.4655,7.69348,9.91669,4.79279,10.7605,13.9786,3.5476699999999997,1.57471
1.06,26.7471,6.10657,11.4548,7.69348,9.91211,4.79584,10.7574,13.9786,3.5476699999999997,1.57776
1.08,26.738000000000003,6.10504,11.4563,7.695010000000001,9.91363,4.79431,10.7468,13.9801,3.5491900000000003,1.57776
1.1,26.7227,6.10504,11.4563,7.69348,9.91516,4.79431,10.7452,13.974,3.5476699999999997,1.57776
1.12,26.7166,6.10657,11.4532,7.69348,9.91363,4.79431,10.7452,13.9786,3.5461400000000003,1.57471
1.14,26.6876,6.10352,11.4426,7.695010000000001,9.91516,4.79584,10.7315,13.9816,3.5476699999999997,1.57776
1.16,26.6769,6.10657,11.440999999999999,7.691960000000001,9.91516,4.79889,10.7361,13.9771,3.55225,1.57623
1.18,26.6602,6.10504,11.4426,7.691960000000001,9.91516,4.79584,10.7315,13.9771,3.5491900000000003,1.57776
1.2,26.651,6.10657,11.4441,7.695010000000001,9.91821,4.79431,10.7315,13.9801,3.5491900000000003,1.57623
1.22,26.6357,6.10657,11.4441,7.691960000000001,9.91821,4.80041,10.7208,13.9648,3.5491900000000003,1.57623
1.24,26.6251,6.10352,11.4319,7.69653,9.91821,4.79431,10.7254,13.9633,3.5476699999999997,1.57471
1.26,26.619,6.10809,11.4334,7.69348,9.91363,4.79431,10.7239,13.9648,3.5476699999999997,1.57623
1.28,26.6006,6.10809,11.4319,7.695010000000001,9.91669,4.79736,10.7239,13.9664,3.5507199999999997,1.57318
1.3,26.5884,6.10504,11.4288,7.69348,9.91363,4.80041,10.7117,13.9679,3.5461400000000003,1.57471
1.32,26.5793,6.10504,11.4334,7.695010000000001,9.91669,4.79736,10.7101,13.9648,3.5537699999999997,1.57471
1.34,26.5671,6.10504,11.4349,7.691960000000001,9.91363,4.79736,10.7086,13.9648,3.5491900000000003,1.57623
1.36,26.5518,6.10352,11.4304,7.691960000000001,9.91363,4.79889,10.7117,13.9648,3.5476699999999997,1.57318
1.38,26.5335,6.10657,11.4304,7.69348,9.91516,4.79584,10.6979,13.9648,3.5491900000000003,1.57623
1.4,26.5182,6.10504,11.4349,7.69348,9.91669,4.79431,10.700999999999999,13.9664,3.5476699999999997,1.57318
1.42,26.5091,6.10657,11.4334,7.69348,9.91363,4.79431,10.6995,13.9664,3.5491900000000003,1.57623
1.44,26.5045,6.09283,11.4319,7.691960000000001,9.91669,4.79736,10.6842,13.9526,3.55225,1.57623
1.46,26.4893,6.09131,11.4334,7.691960000000001,9.91516,4.79889,10.6873,13.9526,3.53241,1.57776
1.48,26.4801,6.09589,11.4288,7.695010000000001,9.91669,4.79279,10.6735,13.9496,3.53851,1.57471
1.5,26.4694,6.09283,11.4426,7.69043,9.91516,4.79736,10.6705,13.9542,3.5369900000000003,1.57318
1.52,26.4694,6.09283,11.4426,7.69348,9.91669,4.79431,10.6705,13.9542,3.54156,1.57471
1.54,26.4572,6.0791,11.4471,7.695010000000001,9.91516,4.79889,10.6598,13.9542,3.5400400000000003,1.57471
1.56,26.4435,6.08063,11.4548,7.695010000000001,9.91669,4.79431,10.6628,13.9557,3.5369900000000003,1.57471
1.58,26.4435,6.0791,11.4578,7.69348,9.91211,4.79431,10.6598,13.9526,3.53851,1.57471
1.6,26.4313,6.08063,11.4563,7.69043,9.91669,4.79584,10.6476,13.9526,3.53546,1.57623
1.62,26.4297,6.08368,11.4716,7.695010000000001,9.91821,4.7897300000000005,10.6491,13.9511,3.5369900000000003,1.57776
1.64,26.4206,6.07605,11.4685,7.69348,9.91363,4.79584,10.6476,13.9542,3.5369900000000003,1.57471
1.66,26.4191,6.07758,11.4807,7.69043,9.91516,4.79431,10.6476,13.9389,3.5400400000000003,1.57623
1.68,26.4206,6.08063,11.4807,7.69348,9.91363,4.79279,10.6384,13.942,3.5400400000000003,1.57623
1.7,26.4191,6.08215,11.4944,7.69653,9.91669,4.7821,10.6384,13.9389,3.5400400000000003,1.57623
1.72,26.4206,6.0791,11.4929,7.691960000000001,9.91516,4.7805800000000005,10.6384,13.9374,3.53851,1.57623
1.74,26.4191,6.08215,11.5082,7.69348,9.91516,4.7821,10.6354,13.942,3.53546,1.57471
1.76,26.4175,6.07758,11.5051,7.691960000000001,9.91669,4.7836300000000005,10.6369,13.9389,3.53851,1.57623
1.78,26.4313,6.0791,11.5158,7.69348,9.91669,4.7836300000000005,10.6247,13.9435,3.54156,1.57471
1.8,26.4465,6.08063,11.527999999999999,7.67822,9.91516,4.785159999999999,10.6262,13.9435,3.53851,1.57471
1.82,26.4572,6.08063,11.5326,7.6828,9.91058,4.79431,10.6247,13.9374,3.53851,1.57471
1.84,26.4679,6.08063,11.5402,7.67975,9.91821,4.7805800000000005,10.6247,13.9404,3.53851,1.57623
1.86,26.4832,6.08063,11.5524,7.68433,9.91669,4.7821,10.6216,13.945,3.53851,1.57928
1.88,26.5045,6.08063,11.554,7.6828,9.91669,4.7836300000000005,10.6186,13.942,3.54156,1.57623
1.9,26.5289,6.0791,11.5677,7.67975,9.91821,4.785159999999999,10.6262,13.942,3.53851,1.57776
1.92,26.5518,6.07758,11.5799,7.68127,9.91211,4.7821,10.6216,13.9282,3.5369900000000003,1.57776
1.94,26.5915,6.07605,11.5799,7.67975,9.91669,4.7836300000000005,10.6247,13.9282,3.5400400000000003,1.57318
1.96,26.6144,6.08063,11.589,7.6828,9.91516,4.7821,10.6232,13.9282,3.5369900000000003,1.57471
1.98,26.651,6.0791,11.6013,7.6828,9.91516,4.7836300000000005,10.6247,13.9252,3.5400400000000003,1.57776
2.0,26.6876,6.0791,11.6028,7.68127,9.91516,4.7836300000000005,10.6247,13.9267,3.5400400000000003,1.57623
2.02,26.7227,6.07758,11.618,7.6828,9.91821,4.7821,10.6262,13.9297,3.5369900000000003,1.57318
2.04,26.7624,6.08368,11.6272,7.68127,9.91516,4.7821,10.6232,13.9282,3.5369900000000003,1.57623
2.06,26.799,6.06537,11.6287,7.67975,9.91516,4.7836300000000005,10.6262,13.9297,3.5369900000000003,1.57471
2.08,26.8417,6.06384,11.6379,7.68127,9.91669,4.7836300000000005,10.6232,13.9267,3.5369900000000003,1.57623
2.1,26.8829,6.06842,11.6409,7.68433,9.91821,4.7836300000000005,10.6262,13.9282,3.5369900000000003,1.56097
2.12,26.9257,6.06842,11.6547,7.68127,9.91516,4.785159999999999,10.6232,13.9297,3.52325,1.56403
2.14,26.9699,6.06689,11.6516,7.6828,9.91363,4.7836300000000005,10.6354,13.9282,3.5247800000000002,1.57623
2.16,27.0065,6.06995,11.6501,7.68433,9.90906,4.7836300000000005,10.6384,13.9297,3.52325,1.5625
2.18,27.0493,6.06232,11.6669,7.67975,9.91669,4.79584,10.6354,13.9145,3.52631,1.5625
2.2,27.0935,6.06842,11.6638,7.67975,9.91669,4.79736,10.6384,13.9145,3.5278300000000002,1.57318
2.22,27.1301,6.06689,11.6638,7.6828,9.91669,4.7836300000000005,10.6338,13.9145,3.5247800000000002,1.56708
2.24,27.1744,6.06842,11.6745,7.67975,9.91516,4.7821,10.6491,13.9175,3.5247800000000002,1.56097
2.26,27.2171,6.06842,11.675999999999998,7.6828,9.91363,4.785159999999999,10.6476,13.915999999999999,3.52631,1.56403
2.28,27.2522,6.06537,11.675999999999998,7.67975,9.91516,4.7836300000000005,10.6491,13.9206,3.52631,1.56097
2.3,27.2888,6.06689,11.6776,7.6828,9.91669,4.7821,10.6537,13.913,3.5247800000000002,1.5625
2.32,27.3117,6.06842,11.6776,7.68127,9.91211,4.785159999999999,10.6598,13.9175,3.52631,1.56403
2.34,27.3468,6.06537,11.675999999999998,7.67975,9.91363,4.7821,10.6613,13.9175,3.5247800000000002,1.57623
2.36,27.3727,6.06689,11.6867,7.68127,9.91821,4.785159999999999,10.6628,13.9145,3.5247800000000002,1.5625
2.38,27.4017,6.06842,11.6898,7.68433,9.90295,4.7836300000000005,10.6628,13.9145,3.52325,1.5625
2.4,27.4261,6.06842,11.6882,7.6828,9.90143,4.7821,10.6583,13.915999999999999,3.52631,1.56555
2.42,27.4429,6.06842,11.6898,7.68127,9.90143,4.7821,10.672,13.913,3.52631,1.56097
2.44,27.4719,6.05926,11.6898,7.68433,9.90448,4.7821,10.675,13.9145,3.52631,1.5625
2.46,27.4841,6.05164,11.6867,7.67975,9.90295,4.7821,10.672,13.9069,3.52631,1.57776
2.48,27.5101,6.05621,11.6882,7.67975,9.90295,4.7836300000000005,10.6873,13.9038,3.52631,1.57471
2.5,27.5208,6.05316,11.6913,7.6828,9.90143,4.7821,10.6857,13.9038,3.52325,1.5625
2.52,27.5345,6.05621,11.6882,7.68127,9.90295,4.785159999999999,10.6842,13.9023,3.5278300000000002,1.55945
2.54,27.5452,6.05621,11.6882,7.6828,9.90601,4.785159999999999,10.6857,13.9053,3.5247800000000002,1.57471
2.56,27.5558,6.05316,11.6837,7.67975,9.90753,4.785159999999999,10.6827,13.9038,3.5247800000000002,1.56097
2.58,27.5696,6.05621,11.6913,7.68127,9.90448,4.7836300000000005,10.6873,13.9008,3.5247800000000002,1.56555
2.6,27.5818,6.05621,11.6867,7.68127,9.8999,4.785159999999999,10.6827,13.9053,3.52631,1.5625
2.62,27.5955,6.05621,11.6882,7.68433,9.90143,4.785159999999999,10.6842,13.9053,3.52631,1.5625
2.64,27.594,6.05621,11.6882,7.6828,9.90448,4.7836300000000005,10.6857,13.9053,3.5247800000000002,1.5625
2.66,27.6062,6.05316,11.6882,7.67975,9.90448,4.785159999999999,10.6842,13.9038,3.5202,1.56403
2.68,27.6169,6.05621,11.6898,7.6767,9.90295,4.7836300000000005,10.6873,13.9008,3.5217300000000002,1.5625
2.7,27.6184,6.05469,11.675999999999998,7.68127,9.90448,4.788209999999999,10.6857,13.9023,3.5125699999999997,1.56097
2.72,27.6184,6.05469,11.6776,7.68433,9.90143,4.7836300000000005,10.675,13.9038,3.5095199999999998,1.5625
2.74,27.6291,6.05469,11.6791,7.6828,9.90448,4.7821,10.672,13.9053,3.5125699999999997,1.56403
2.76,27.6306,6.05774,11.6714,7.6828,9.8999,4.7866800000000005,10.6705,13.9038,3.5141,1.56097
2.78,27.6428,6.05621,11.673,7.68433,9.90143,4.7836300000000005,10.672,13.9084,3.5141,1.56097
2.8,27.6428,6.05774,11.6638,7.69348,9.90143,4.7836300000000005,10.6598,13.9038,3.5125699999999997,1.55945
2.82,27.6428,6.04095,11.6653,7.69348,9.90295,4.7836300000000005,10.6598,13.9023,3.51105,1.56555
2.84,27.651999999999997,6.04401,11.6623,7.691960000000001,9.90295,4.7836300000000005,10.6583,13.9069,3.51105,1.5625
2.86,27.655,6.04095,11.6547,7.695010000000001,9.90448,4.7836300000000005,10.6613,13.9084,3.5141,1.56403
2.88,27.6566,6.04401,11.6531,7.69043,9.90143,4.7836300000000005,10.6613,13.9038,3.5141,1.5625
2.9,27.6627,6.04248,11.6516,7.69348,9.90601,4.7821,10.6491,13.9084,3.51105,1.5625
2.92,27.6657,6.04401,11.6409,7.695010000000001,9.90143,4.7836300000000005,10.6491,13.9053,3.5141,1.56403
2.94,27.6657,6.04248,11.644,7.704160000000001,9.90448,4.7805800000000005,10.6491,13.9175,3.5125699999999997,1.56555
2.96,27.6688,6.03943,11.6379,7.707210000000001,9.90295,4.7836300000000005,10.6445,13.9145,3.5141,1.56708
2.98,27.6688,6.04553,11.6226,7.7102699999999995,9.90448,4.7836300000000005,10.6384,13.913,3.5141,1.55945
3.0,27.6779,6.04553,11.6287,7.707210000000001,9.90295,4.7836300000000005,10.6354,13.915999999999999,3.5125699999999997,1.56097
3.02,27.6825,6.04401,11.6272,7.70569,9.90295,4.785159999999999,10.6338,13.9145,3.5156199999999997,1.56097
3.04,27.6794,6.04401,11.615,7.71789,9.90295,4.7821,10.6384,13.9114,3.5095199999999998,1.56403
3.06,27.6825,6.04401,11.6165,7.71789,9.90448,4.785159999999999,10.6338,13.913,3.5125699999999997,1.56403
3.08,27.6794,6.04401,11.6043,7.71789,9.90295,4.7821,10.6354,13.9252,3.5141,1.5625
3.1,27.6916,6.04248,11.6028,7.72095,9.90601,4.7821,10.6247,13.9297,3.5125699999999997,1.56555
3.12,27.6932,6.04401,11.589,7.7301,9.90143,4.7836300000000005,10.6216,13.9282,3.5141,1.56403
3.14,27.6901,6.04248,11.5921,7.73163,9.89075,4.7821,10.6232,13.9236,3.51105,1.56403
3.16,27.6932,6.04248,11.5799,7.73163,9.89227,4.7866800000000005,10.6262,13.9282,3.51105,1.56097
3.18,27.6932,6.04248,11.5799,7.74383,9.89227,4.7836300000000005,10.6232,13.9282,3.51105,1.56403
3.2,27.6932,6.03027,11.5646,7.74078,9.89075,4.7805800000000005,10.6384,13.942,3.5141,1.5625
3.22,27.6764,6.03485,11.5662,7.745360000000001,9.89075,4.785159999999999,10.6354,13.942,3.5156199999999997,1.56403
3.24,27.6794,6.0318,11.5662,7.75604,9.89075,4.7836300000000005,10.6369,13.9404,3.5141,1.5625
3.26,27.6794,6.03027,11.5494,7.75299,9.88922,4.7866800000000005,10.6476,13.9404,3.5125699999999997,1.56403
3.28,27.680999999999997,6.02875,11.5494,7.754519999999999,9.89075,4.785159999999999,10.6613,13.9542,3.5003699999999998,1.56555
3.3,27.680999999999997,6.0318,11.5417,7.766719999999999,9.89075,4.7805800000000005,10.6705,13.9526,3.49884,1.56403
3.32,27.680999999999997,6.03027,11.5448,7.766719999999999,9.88922,4.7836300000000005,10.6873,13.9526,3.5034199999999998,1.56555
3.34,27.6657,6.03332,11.5448,7.7774,9.89075,4.7836300000000005,10.6995,13.9633,3.5003699999999998,1.56403
3.36,27.6657,6.0318,11.5311,7.78198,9.88922,4.7836300000000005,10.7117,13.9664,3.50189,1.56403
3.38,27.684,6.0318,11.5311,7.7880899999999995,9.88922,4.785159999999999,10.7346,13.9618,3.5003699999999998,1.5625
3.4,27.6779,6.03027,11.5173,7.7911399999999995,9.8938,4.7866800000000005,10.759,13.9648,3.50189,1.56555
3.42,27.680999999999997,6.0318,11.5143,7.8033399999999995,9.89075,4.7821,10.7773,13.9755,3.49884,1.56708
3.44,27.6764,6.03332,11.5189,7.8033399999999995,9.89532,4.7836300000000005,10.8032,13.9771,3.5034199999999998,1.5625
3.46,27.6794,6.0318,11.5036,7.814030000000001,9.88922,4.785159999999999,10.8307,13.9893,3.5003699999999998,1.56097
3.48,27.6779,6.02875,11.5021,7.81555,9.89227,4.7836300000000005,10.8566,13.9908,3.50189,1.5625
3.5,27.680999999999997,6.01959,11.4929,7.829280000000001,9.89075,4.7836300000000005,10.8932,13.9999,3.5003699999999998,1.5625
3.52,27.680999999999997,6.02264,11.4929,7.838439999999999,9.89227,4.7836300000000005,10.9329,14.003,3.4973099999999997,1.56555
3.54,27.684,6.01654,11.4777,7.85217,9.8938,4.785159999999999,10.968,14.0137,3.49884,1.56555
3.56,27.6794,6.01807,11.4792,7.86591,9.8938,4.785159999999999,11.0046,14.0167,3.5003699999999998,1.56555
3.58,27.6779,6.01959,11.4807,7.86285,9.88922,4.7805800000000005,11.0428,14.0228,3.5003699999999998,1.56555
3.6,27.680999999999997,6.01654,11.4685,7.87811,9.89227,4.7836300000000005,11.0794,14.0366,3.5003699999999998,1.56403
3.62,27.6855,6.01959,11.467,7.89032,9.89075,4.7836300000000005,11.1114,14.0518,3.5003699999999998,1.56403
3.64,27.6932,6.01807,11.467,7.9116800000000005,9.88769,4.7821,11.1526,14.0518,3.5003699999999998,1.56403
3.66,27.6932,6.02112,11.4578,7.92541,9.88922,4.7836300000000005,11.1923,14.0656,3.49884,1.56708
3.68,27.6901,6.02112,11.4548,7.93762,9.8938,4.7821,11.2335,14.0778,3.50189,1.5625
3.7,27.7054,6.01654,11.4548,7.96051,9.89227,4.7836300000000005,11.2778,14.0884,3.49884,1.56403
3.72,27.7176,6.02112,11.440999999999999,7.977289999999999,9.88007,4.7836300000000005,11.3083,14.0884,3.5003699999999998,1.56403
3.74,27.7145,6.02112,11.4426,7.98645,9.87854,4.785159999999999,11.3464,14.1006,3.49884,1.56555
3.76,27.7283,6.01654,11.4426,8.01239,9.87701,4.7821,11.3831,14.1083,3.4973099999999997,1.56555
3.78,27.739,6.01807,11.4441,8.02612,9.87701,4.7821,11.4197,14.1235,3.49884,1.56555
3.8,27.7573,6.01654,11.4319,8.0368,9.88007,4.785159999999999,11.4441,14.122,3.5003699999999998,1.56403
3.82,27.7679,6.01654,11.4334,8.05969,9.87854,4.7821,11.4792,14.1357,3.4973099999999997,1.56403
3.84,27.7908,6.03027,11.4334,8.07342,9.87549,4.785159999999999,11.5097,14.1464,3.5003699999999998,1.56097
3.86,27.803,6.03027,11.4334,8.09936,9.88007,4.7836300000000005,11.5387,14.1617,3.5003699999999998,1.56403
3.88,27.831999999999997,6.03027,11.4212,8.1131,9.87854,4.7821,11.5753,14.1724,3.50189,1.56403
3.9,27.8519,6.0318,11.4166,8.13446,9.87854,4.7836300000000005,11.6074,14.1861,3.49884,1.56097
3.92,27.8625,6.03332,11.4197,8.14819,9.88159,4.785159999999999,11.6287,14.1983,3.5034199999999998,1.55792
3.94,27.886999999999997,6.03332,11.4212,8.17261,9.88007,4.785159999999999,11.6577,14.209000000000001,3.5095199999999998,1.56555
3.96,27.9068,6.02875,11.4243,8.18024,9.88007,4.7805800000000005,11.6898,14.2227,3.5125699999999997,1.56097
3.98,27.9251,6.03027,11.409,8.20618,9.88007,4.7821,11.7142,14.2364,3.5125699999999997,1.56403
4.0,27.951,6.03485,11.4059,8.23059,9.87854,4.7836300000000005,11.7249,14.2502,3.5141,1.56097
4.02,27.9709,6.0318,11.4075,8.2428,9.88007,4.7836300000000005,11.7493,14.2609,3.5125699999999997,1.56555
