time(s),100188,100192,100190,100189,100185,110414,100187,100186,100451,200440
0.0,14.5264,2.55432,8.13293,14.1342,0.679016,5.28259,21.0495,2.46887,-0.7585029999999999,-0.0503721
0.02,14.5416,2.55585,8.13293,14.1357,0.680541,5.27954,21.0373,2.46887,-0.756977,-0.05494980000000001
0.04,14.5645,2.5589,8.12836,14.1357,0.679016,5.28564,21.0388,2.46887,-0.756977,-0.051898
0.06,14.5889,2.55432,8.13446,14.1205,0.6774899999999999,5.28107,21.0373,2.45514,-0.756977,-0.0488463
0.08,14.6133,2.55585,8.12225,14.1251,0.6774899999999999,5.28259,21.0342,2.45819,-0.756977,-0.0488463
0.1,14.6393,2.55737,8.12378,14.122,0.6774899999999999,5.28107,21.0251,2.46582,-0.756977,-0.051898
0.12,14.6637,2.55585,8.12073,14.122,0.6774899999999999,5.28107,21.0251,2.45819,-0.755451,-0.051898
0.14,14.6881,2.5527900000000003,8.12225,14.1235,0.675964,5.28107,21.0236,2.45819,-0.7585029999999999,-0.0534239
0.16,14.7156,2.5527900000000003,8.12073,14.1235,0.675964,5.29785,21.022,2.45666,-0.7661319999999999,-0.0488463
0.18,14.74,2.55585,8.11005,14.1083,0.6774899999999999,5.2948,21.0144,2.45666,-0.769184,-0.0473204
0.2,14.7614,2.55585,8.10699,14.1113,0.675964,5.29175,21.0144,2.45514,-0.769184,-0.0534239
0.22,14.7873,2.55737,8.10699,14.1113,0.674438,5.29327,21.0114,2.45666,-0.769184,-0.0503721
0.24,14.7964,2.55737,8.10547,14.1067,0.6774899999999999,5.29633,21.0144,2.45514,-0.767658,-0.051898
0.26,14.8193,2.55432,8.10699,14.1129,0.675964,5.29633,20.9976,2.45666,-0.77071,-0.0534239
0.28,14.8483,2.55432,8.09479,14.1083,0.674438,5.2948,21.0022,2.45666,-0.769184,-0.0503721
0.3,14.8605,2.5589,8.09936,14.1083,0.6774899999999999,5.2948,20.9991,2.45819,-0.767658,-0.051898
0.32,14.8849,2.55432,8.09631,14.1113,0.679016,5.2948,20.9885,2.45666,-0.77071,-0.0534239
0.34,14.9094,2.55585,8.09631,14.093,0.674438,5.2948,20.9839,2.45514,-0.769184,-0.051898
0.36,14.9292,2.5589,8.08258,14.0991,0.674438,5.29327,20.9869,2.45819,-0.756977,-0.0503721
0.38,14.9445,2.5527900000000003,8.08258,14.0991,0.674438,5.29633,20.9747,2.45514,-0.7585029999999999,-0.0488463
0.4,14.9673,2.55585,8.08105,14.1129,0.679016,5.29633,20.9763,2.45972,-0.7585029999999999,-0.051898
0.42,14.9826,2.55585,8.08258,14.1129,0.6774899999999999,5.29327,20.9732,2.45514,-0.747822,-0.0488463
0.44,15.0055,2.55127,8.08411,14.1129,0.674438,5.29633,20.964000000000002,2.45514,-0.740192,-0.051898
0.46,15.0208,2.55737,8.08411,14.1113,0.6774899999999999,5.29633,20.964000000000002,2.45666,-0.740192,-0.0503721
0.48,15.0436,2.55585,8.07342,14.1113,0.6774899999999999,5.29785,20.964000000000002,2.45209,-0.732563,-0.0488463
0.5,15.0574,2.55432,8.07037,14.1098,0.6774899999999999,5.2948,20.9503,2.45514,-0.732563,-0.0503721
0.52,15.0711,2.55432,8.07495,14.1098,0.672912,5.29785,20.9488,2.45666,-0.71883,-0.0503721
0.54,15.0818,2.55432,8.07495,14.1144,0.674438,5.29327,20.9518,2.45666,-0.708149,-0.051898
0.56,15.094000000000001,2.55585,8.07037,14.1251,0.679016,5.2948,20.9412,2.45666,-0.705097,-0.0503721
0.58,15.1062,2.55585,8.06122,14.1251,0.675964,5.29633,20.9366,2.45514,-0.697468,-0.0488463
0.6,15.1154,2.55737,8.06274,14.122,0.675964,5.29938,20.9381,2.45819,-0.6822090000000001,-0.0534239
0.62,15.1306,2.55585,8.05817,14.119000000000002,0.674438,5.2948,20.9274,2.45666,-0.671528,-0.0503721
0.64,15.1413,2.55432,8.05969,14.1251,0.6774899999999999,5.29785,20.9244,2.45666,-0.656269,-0.0503721
0.66,15.1428,2.55432,8.05817,14.1357,0.6774899999999999,5.29327,20.9274,2.45819,-0.6333810000000001,-0.0503721
0.68,15.1581,2.55585,8.04901,14.1342,0.675964,5.29633,20.9274,2.45666,-0.621174,-0.051898
0.7,15.1642,2.5527900000000003,8.045960000000001,14.1357,0.675964,5.29785,20.9137,2.45361,-0.607441,-0.0534239
0.72,15.1657,2.55432,8.04748,14.1479,0.6774899999999999,5.29633,20.9137,2.45819,-0.593708,-0.0534239
0.74,15.1794,2.5527900000000003,8.045960000000001,14.1495,0.675964,5.29785,20.9137,2.45514,-0.586079,-0.0503721
0.76,15.1779,2.5527900000000003,8.04901,14.151,0.679016,5.29633,20.9137,2.45666,-0.572346,-0.0488463
0.78,15.1886,2.55127,8.03833,14.1632,0.6774899999999999,5.29633,20.9015,2.45514,-0.560139,-0.051898
0.8,15.1947,2.55432,8.03375,14.1556,0.675964,5.2948,20.903000000000002,2.45514,-0.558613,-0.05494980000000001
0.82,15.2054,2.55585,8.03528,14.1693,0.6774899999999999,5.29327,20.8893,2.45666,-0.550983,-0.0488463
0.84,15.2069,2.5527900000000003,8.03528,14.1724,0.6774899999999999,5.2948,20.8923,2.45819,-0.538776,-0.0503721
0.86,15.2069,2.55585,8.03833,14.183,0.6774899999999999,5.29785,20.8893,2.45666,-0.523517,-0.0473204
0.88,15.2039,2.5527900000000003,8.03223,14.1846,0.674438,5.29633,20.8755,2.45666,-0.512836,-0.051898
0.9,15.2145,2.55737,8.0246,14.1953,0.675964,5.2948,20.8801,2.45666,-0.500629,-0.0503721
0.92,15.213,2.55737,8.02307,14.1968,0.6774899999999999,5.2948,20.8771,2.45972,-0.48536999999999997,-0.051898
0.94,15.213,2.55737,8.0246,14.2075,0.6774899999999999,5.2948,20.8649,2.45819,-0.47621499999999994,-0.051898
0.96,15.2161,2.55432,8.0246,14.2242,0.674438,5.29633,20.8664,2.45514,-0.46248199999999995,-0.0503721
0.98,15.2145,2.55432,8.02154,14.2227,0.675964,5.29938,20.8679,2.45819,-0.451801,-0.0534239
1.0,15.2176,2.5527900000000003,8.02154,14.2349,0.679016,5.29175,20.8511,2.45819,-0.436542,-0.0488463
1.02,15.2176,2.55585,8.01239,14.2334,0.675964,5.29633,20.8542,2.45666,-0.425861,-0.0534239
1.04,15.2176,2.55737,8.007810000000001,14.2471,0.675964,5.29633,20.8542,2.45666,-0.402973,-0.0503721
1.06,15.2161,2.55432,8.01239,14.2548,0.675964,5.29785,20.842,2.45514,-0.390766,-0.0503721
1.08,15.2176,2.55432,8.010860000000001,14.2578,0.6774899999999999,5.29633,20.8389,2.45819,-0.377033,-0.051898
1.1,15.2145,2.55432,8.01239,14.2715,0.6774899999999999,5.29785,20.8405,2.45514,-0.366352,-0.051898
1.12,15.2176,2.55585,8.013919999999999,14.2715,0.675964,5.29633,20.8298,2.45819,-0.352619,-0.0473204
1.14,15.2176,2.55432,7.99713,14.2838,0.675964,5.29327,20.8252,2.45666,-0.326679,-0.0534239
1.16,15.2069,2.55432,7.998660000000001,14.2944,0.679016,5.2948,20.8267,2.45819,-0.315998,-0.051898
1.18,15.2039,2.5527900000000003,7.998660000000001,14.296,0.674438,5.29785,20.816,2.45666,-0.306843,-0.051898
1.2,15.2054,2.55432,7.998660000000001,14.3066,0.6774899999999999,5.29633,20.816,2.45666,-0.29311,-0.0534239
1.22,15.1901,2.55585,8.00018,14.3219,0.6774899999999999,5.29633,20.8038,2.45666,-0.277851,-0.051898
1.24,15.1901,2.55585,7.998660000000001,14.3295,0.674438,5.29785,20.8038,2.45666,-0.26716999999999996,-0.0503721
1.26,15.181,2.55585,7.98492,14.3341,0.674438,5.29633,20.8023,2.45361,-0.25343699999999997,-0.0488463
1.28,15.1749,2.55585,7.98798,14.3448,0.675964,5.29938,20.7947,2.45819,-0.245808,-0.0534239
1.3,15.1779,2.55432,7.98492,14.3524,0.675964,5.2948,20.7916,2.45666,-0.229023,-0.051898
1.32,15.1657,2.55432,7.98645,14.3692,0.675964,5.29633,20.7901,2.45361,-0.21986799999999998,-0.0534239
1.34,15.1672,2.55585,7.98645,14.3707,0.674438,5.29327,20.7748,2.45666,-0.20613499999999998,-0.051898
1.36,15.152000000000001,2.5527900000000003,7.98798,14.3814,0.672912,5.2948,20.7794,2.45666,-0.196979,-0.051898
1.38,15.1535,2.5589,7.97272,14.3936,0.674438,5.29633,20.7672,2.45666,-0.181721,-0.051898
1.4,15.155,2.5527900000000003,7.974239999999999,14.3921,0.675964,5.2948,20.7657,2.45514,-0.181721,-0.0564757
1.42,15.1398,2.55585,7.974239999999999,14.4073,0.679016,5.2948,20.755,2.45666,-0.169514,-0.0488463
1.44,15.1428,2.55585,7.971189999999999,14.4028,0.675964,5.2948,20.755,2.45514,-0.171039,-0.0503721
1.46,15.1306,2.5527900000000003,7.97577,14.4196,0.679016,5.29633,20.7565,2.45819,-0.169514,-0.051898
1.48,15.1321,2.55432,7.97272,14.4318,0.6774899999999999,5.29327,20.7443,2.45819,-0.158832,-0.0503721
1.5,15.1199,2.55585,7.97577,14.4318,0.6774899999999999,5.28259,20.7428,2.45361,-0.157307,-0.051898
1.52,15.1154,2.55432,7.96051,14.4409,0.6774899999999999,5.2887,20.7458,2.45361,-0.158832,-0.051898
1.54,15.1016,2.55432,7.96356,14.4394,0.6713859999999999,5.28564,20.7321,2.45209,-0.157307,-0.0488463
1.56,15.1093,2.55585,7.95898,14.4531,0.675964,5.27954,20.7352,2.45361,-0.1451,-0.0488463
1.58,15.094000000000001,2.55432,7.965089999999999,14.4531,0.674438,5.28259,20.7306,2.45666,-0.146625,-0.0473204
1.6,15.0879,2.55432,7.95898,14.4669,0.675964,5.28259,20.7321,2.45361,-0.1451,-0.051898
1.62,15.0803,2.55432,7.96051,14.4669,0.672912,5.28412,20.7199,2.45666,-0.131367,-0.0503721
1.64,15.0711,2.55737,7.94678,14.4775,0.6774899999999999,5.28412,20.7199,2.45666,-0.135944,-0.0503721
1.66,15.0681,2.55737,7.94983,14.475999999999999,0.6774899999999999,5.28107,20.7199,2.45514,-0.132892,-0.051898
1.68,15.0574,2.55585,7.94983,14.4913,0.675964,5.27954,20.7092,2.45819,-0.12068499999999999,-0.0503721
1.7,15.0558,2.55737,7.95135,14.4897,0.675964,5.28259,20.7077,2.45666,-0.12221099999999999,-0.0488463
1.72,15.0436,2.55585,7.9483,14.5035,0.675964,5.28107,20.7047,2.45514,-0.10695299999999999,-0.051898
1.74,15.0299,2.55585,7.93457,14.5035,0.6774899999999999,5.28564,20.7047,2.45514,-0.10695299999999999,-0.0488463
1.76,15.0314,2.5527900000000003,7.93762,14.5157,0.6774899999999999,5.27954,20.7077,2.45514,-0.10847799999999999,-0.05494980000000001
1.78,15.0223,2.55585,7.93762,14.5142,0.672912,5.28564,20.694000000000003,2.45666,-0.0977973,-0.051898
1.8,15.0177,2.5527900000000003,7.926939999999999,14.5233,0.6774899999999999,5.28107,20.7077,2.45514,-0.0962714,-0.05494980000000001
1.82,15.0101,2.55585,7.92236,14.5279,0.675964,5.28259,20.7077,2.45514,-0.0977973,-0.0503721
1.84,15.007,2.5527900000000003,7.92847,14.5248,0.675964,5.28412,20.7077,2.45666,-0.0825385,-0.0503721
1.86,14.9918,2.55585,7.92236,14.5401,0.675964,5.28107,20.7047,2.45819,-0.0825385,-0.05494980000000001
1.88,14.9841,2.55432,7.9086300000000005,14.537,0.674438,5.28412,20.7047,2.45666,-0.08559019999999999,-0.0488463
1.9,14.9704,2.55432,7.9147300000000005,14.5508,0.6774899999999999,5.28259,20.7184,2.45819,-0.0718573,-0.051898
1.92,14.9567,2.55585,7.91321,14.5538,0.679016,5.28412,20.7184,2.45666,-0.06880560000000001,-0.0503721
1.94,14.946,2.5527900000000003,7.91321,14.5523,0.6774899999999999,5.28259,20.7336,2.45819,-0.0596503,-0.0503721
1.96,14.9277,2.55432,7.9071,14.565999999999999,0.6713859999999999,5.28259,20.7428,2.45666,-0.0565985,-0.0503721
1.98,14.9216,2.55432,7.91321,14.562999999999999,0.675964,5.28412,20.755,2.45819,-0.0565985,-0.05494980000000001
2.0,14.9063,2.55585,7.89795,14.5737,0.6774899999999999,5.28107,20.7703,2.45514,-0.04744330000000001,-0.0534239
2.02,14.8987,2.55585,7.89947,14.5737,0.674438,5.28259,20.7779,2.45972,-0.04744330000000001,-0.0503721
2.04,14.8956,2.55737,7.89795,14.5737,0.675964,5.28259,20.8023,2.45666,-0.04744330000000001,-0.051898
2.06,14.8819,2.55432,7.89947,14.5905,0.674438,5.28412,20.8176,2.45819,-0.038288,-0.05494980000000001
2.08,14.8712,2.55432,7.901,14.5889,0.674438,5.28107,20.8313,2.45361,-0.0337103,-0.0503721
2.1,14.859000000000002,2.55585,7.901,14.5889,0.6774899999999999,5.28107,20.8557,2.45819,-0.04744330000000001,-0.0503721
2.12,14.8453,2.55737,7.89947,14.592,0.675964,5.28107,20.8786,2.45819,-0.04744330000000001,-0.0503721
2.14,14.8392,2.55737,7.88727,14.5996,0.675964,5.28107,20.9045,2.45666,-0.045917400000000004,-0.0503721
2.16,14.8209,2.55432,7.885739999999999,14.6011,0.6774899999999999,5.28412,20.9259,2.45666,-0.0550726,-0.0534239
2.18,14.8102,2.55585,7.888789999999999,14.595,0.6774899999999999,5.28107,20.9503,2.45514,-0.0565985,-0.0488463
2.2,14.8117,2.5589,7.888789999999999,14.6011,0.675964,5.28412,20.9747,2.45666,-0.0733832,-0.0488463
2.22,14.7995,2.55585,7.885739999999999,14.6133,0.675964,5.28412,21.0114,2.45514,-0.0703314,-0.051898
2.24,14.7858,2.55585,7.88727,14.6103,0.674438,5.28259,21.0403,2.45666,-0.0733832,-0.051898
2.26,14.7873,2.5589,7.88727,14.6118,0.679016,5.28412,21.076999999999998,2.45666,-0.08406430000000001,-0.051898
2.28,14.7751,2.55585,7.87811,14.6133,0.672912,5.28259,21.1029,2.45972,-0.08559019999999999,-0.0534239
2.3,14.7644,2.55432,7.879639999999999,14.6118,0.6774899999999999,5.27801,21.138,2.45666,-0.0825385,-0.0488463
2.32,14.7629,2.5527900000000003,7.876589999999999,14.6225,0.6713859999999999,5.28259,21.17,2.45972,-0.0825385,-0.0534239
2.34,14.7507,2.5527900000000003,7.87506,14.620999999999999,0.6774899999999999,5.28259,21.2097,2.45666,-0.08406430000000001,-0.051898
2.36,14.7476,2.55432,7.87506,14.624,0.675964,5.28564,21.2326,2.45819,-0.08406430000000001,-0.0503721
2.38,14.7537,2.55737,7.87811,14.624,0.675964,5.28412,21.2692,2.45514,-0.08406430000000001,-0.051898
2.4,14.7385,2.55585,7.864380000000001,14.624,0.675964,5.28107,21.3074,2.45361,-0.08559019999999999,-0.0503721
2.42,14.7385,2.55585,7.86285,14.6378,0.675964,5.28412,21.3425,2.45819,-0.0871161,-0.0534239
2.44,14.7369,2.55585,7.864380000000001,14.6393,0.675964,5.28259,21.3776,2.45819,-0.0962714,-0.05494980000000001
2.46,14.7507,2.5527900000000003,7.864380000000001,14.6408,0.674438,5.28412,21.405,2.45666,-0.0977973,-0.051898
2.48,14.7491,2.55432,7.864380000000001,14.6469,0.6774899999999999,5.28259,21.4386,2.45514,-0.0962714,-0.0503721
2.5,14.7491,2.55432,7.86285,14.65,0.6774899999999999,5.28412,21.4676,2.45514,-0.0962714,-0.0503721
2.52,14.7629,2.55585,7.8537,14.6515,0.6774899999999999,5.28107,21.4935,2.45972,-0.0977973,-0.0534239
2.54,14.7736,2.55585,7.85065,14.6469,0.674438,5.28564,21.5195,2.45972,-0.09932310000000001,-0.0488463
2.56,14.7873,2.55127,7.84912,14.6591,0.6774899999999999,5.28259,21.5393,2.45819,-0.0977973,-0.051898
2.58,14.8102,2.55737,7.84912,14.6637,0.675964,5.28107,21.5622,2.45819,-0.10847799999999999,-0.0503721
2.6,14.8209,2.55432,7.847589999999999,14.6622,0.679016,5.27954,21.5759,2.45666,-0.10847799999999999,-0.051898
2.62,14.8483,2.5527900000000003,7.85065,14.6606,0.675964,5.28107,21.6003,2.45209,-0.10695299999999999,-0.0488463
2.64,14.8712,2.55585,7.85217,14.6637,0.675964,5.28259,21.608,2.45666,-0.11000399999999999,-0.0503721
2.66,14.8956,2.55737,7.84302,14.6606,0.675964,5.28412,21.636999999999997,2.45514,-0.10542699999999999,-0.051898
2.68,14.9338,2.55432,7.8369100000000005,14.6637,0.674438,5.28107,21.6522,2.45666,-0.10695299999999999,-0.051898
2.7,14.9673,2.55737,7.841489999999999,14.6622,0.6774899999999999,5.28107,21.6614,2.45819,-0.11763399999999999,-0.051898
2.72,14.9933,2.55585,7.838439999999999,14.6622,0.675964,5.28412,21.6766,2.45972,-0.12068499999999999,-0.0503721
2.74,15.036,2.55585,7.835389999999999,14.6622,0.675964,5.27954,21.6827,2.45972,-0.12068499999999999,-0.0534239
2.76,15.0787,2.55432,7.8369100000000005,14.6591,0.6774899999999999,5.28259,21.698,2.45514,-0.134418,-0.051898
2.78,15.1154,2.55585,7.83997,14.6759,0.679016,5.28107,21.7087,2.45666,-0.146625,-0.051898
2.8,15.1566,2.55737,7.8277600000000005,14.6729,0.675964,5.28259,21.7194,2.45666,-0.146625,-0.0503721
2.82,15.2054,2.55737,7.8247100000000005,14.6759,0.679016,5.27954,21.7224,2.45514,-0.157307,-0.0503721
2.84,15.2527,2.55585,7.823180000000001,14.6729,0.6774899999999999,5.27191,21.7224,2.46124,-0.172565,-0.0503721
2.86,15.302999999999999,2.55737,7.826230000000001,14.6774,0.675964,5.26886,21.7361,2.46124,-0.171039,-0.051898
2.88,15.3488,2.55585,7.8308100000000005,14.6729,0.679016,5.27496,21.7346,2.45514,-0.183246,-0.051898
2.9,15.3839,2.55585,7.8277600000000005,14.6729,0.6774899999999999,5.27191,21.7346,2.45666,-0.181721,-0.0534239
2.92,15.4343,2.55432,7.829280000000001,14.6744,0.675964,5.27344,21.7316,2.45666,-0.192402,-0.051898
2.94,15.4816,2.55585,7.826230000000001,14.6713,0.675964,5.27039,21.7361,2.45514,-0.192402,-0.0503721
2.96,15.5334,2.55127,7.81555,14.6713,0.675964,5.27191,21.7361,2.45361,-0.20308299999999999,-0.0503721
2.98,15.5792,2.55737,7.810969999999999,14.6729,0.675964,5.27191,21.7361,2.45819,-0.20460899999999999,-0.051898
3.0,15.6311,2.5527900000000003,7.81555,14.6759,0.679016,5.27191,21.7316,2.45514,-0.218342,-0.05494980000000001
3.02,15.6815,2.55585,7.81555,14.6744,0.675964,5.26886,21.7239,2.45514,-0.21681599999999998,-0.0503721
3.04,15.7272,2.55737,7.81555,14.6729,0.675964,5.26886,21.7224,2.45666,-0.21681599999999998,-0.0503721
3.06,15.7776,2.55737,7.814030000000001,14.6713,0.675964,5.27191,21.7224,2.45361,-0.22749699999999998,-0.0503721
3.08,15.8218,2.55737,7.81555,14.6744,0.6774899999999999,5.27039,21.7072,2.45209,-0.229023,-0.05494980000000001
3.1,15.863,2.55585,7.801819999999999,14.6759,0.675964,5.26886,21.7133,2.45666,-0.22749699999999998,-0.0473204
3.12,15.9134,2.55585,7.801819999999999,14.6729,0.674438,5.27344,21.7117,2.45666,-0.24123000000000003,-0.051898
3.14,15.95,2.55585,7.801819999999999,14.6713,0.6774899999999999,5.27039,21.698,2.45666,-0.24123000000000003,-0.05494980000000001
3.16,15.9836,2.55585,7.801819999999999,14.6744,0.674438,5.27191,21.6858,2.45819,-0.25343699999999997,-0.0488463
3.18,16.0217,2.55432,7.8033399999999995,14.6744,0.674438,5.26733,21.6736,2.45666,-0.25648899999999997,-0.051898
3.2,16.0614,2.55432,7.801819999999999,14.6744,0.674438,5.26886,21.6705,2.46124,-0.254963,-0.051898
3.22,16.0843,2.55432,7.801819999999999,14.6713,0.674438,5.26886,21.6614,2.45972,-0.268696,-0.0503721
3.24,16.1209,2.55737,7.7911399999999995,14.6744,0.6774899999999999,5.27344,21.6461,2.45514,-0.26411799999999996,-0.0488463
3.26,16.1438,2.55585,7.7911399999999995,14.6729,0.675964,5.27039,21.6339,2.45361,-0.268696,-0.0503721
3.28,16.1682,2.55585,7.7941899999999995,14.6729,0.674438,5.27191,21.6202,2.45514,-0.268696,-0.05494980000000001
3.3,16.2048,2.55432,7.7911399999999995,14.6744,0.679016,5.26886,21.6141,2.45514,-0.277851,-0.0503721
3.32,16.2308,2.55585,7.786560000000001,14.6744,0.679016,5.26886,21.6019,2.45666,-0.276325,-0.051898
3.34,16.2476,2.55585,7.789610000000001,14.6744,0.672912,5.27039,21.5881,2.45514,-0.279377,-0.051898
3.36,16.2674,2.55585,7.792660000000001,14.6759,0.672912,5.26886,21.5637,2.45514,-0.279377,-0.0503721
3.38,16.2888,2.55432,7.7911399999999995,14.6698,0.6774899999999999,5.27039,21.553,2.45514,-0.290058,-0.0488463
3.4,16.3025,2.55127,7.7774,14.6622,0.6774899999999999,5.27039,21.5393,2.45514,-0.291584,-0.0503721
3.42,16.3177,2.55737,7.7774,14.6606,0.6713859999999999,5.25818,21.5271,2.45972,-0.291584,-0.051898
3.44,16.3284,2.55585,7.77893,14.6576,0.675964,5.25818,21.5179,2.45666,-0.302265,-0.051898
3.46,16.3391,2.55585,7.77588,14.6591,0.6774899999999999,5.25665,21.5027,2.45514,-0.305317,-0.0488463
3.48,16.3544,2.55737,7.7774,14.6591,0.6774899999999999,5.25818,21.4798,2.45514,-0.315998,-0.05494980000000001
3.5,16.3635,2.55585,7.77893,14.6591,0.679016,5.2597,21.4691,2.45666,-0.315998,-0.0534239
3.52,16.3635,2.55432,7.7774,14.6637,0.675964,5.2597,21.4539,2.45666,-0.326679,-0.05494980000000001
3.54,16.3788,2.55432,7.77893,14.6606,0.675964,5.25818,21.4325,2.45819,-0.328205,-0.051898
3.56,16.3757,2.5589,7.7774,14.6591,0.679016,5.25665,21.4188,2.45666,-0.326679,-0.0534239
3.58,16.391,2.55737,7.77588,14.6652,0.679016,5.25818,21.3928,2.45514,-0.338886,-0.0503721
3.6,16.3895,2.5527900000000003,7.78198,14.6576,0.6774899999999999,5.25818,21.3821,2.45666,-0.340412,-0.0534239
3.62,16.3864,2.55737,7.7774,14.6622,0.675964,5.25665,21.3531,2.45666,-0.341938,-0.0503721
3.64,16.4047,2.5527900000000003,7.7774,14.6652,0.679016,5.25513,21.3425,2.45819,-0.338886,-0.0534239
3.66,16.4001,2.55737,7.77893,14.6591,0.6774899999999999,5.25818,21.3181,2.45361,-0.340412,-0.0503721
3.68,16.3986,2.55585,7.76825,14.6622,0.675964,5.26123,21.3074,2.45819,-0.351093,-0.051898
3.7,16.4032,2.5527900000000003,7.766719999999999,14.65,0.675964,5.2597,21.2814,2.45819,-0.351093,-0.0503721
3.72,16.4032,2.5527900000000003,7.766719999999999,14.6484,0.6774899999999999,5.25665,21.2738,2.45361,-0.351093,-0.0457945
3.74,16.3895,2.55432,7.763669999999999,14.6469,0.674438,5.25818,21.256999999999998,2.45514,-0.354145,-0.0503721
3.76,16.3864,2.5527900000000003,7.763669999999999,14.65,0.6774899999999999,5.25818,21.2341,2.45666,-0.351093,-0.051898
3.78,16.3895,2.55585,7.76825,14.6484,0.674438,5.25818,21.2173,2.45666,-0.352619,-0.0503721
3.8,16.3879,2.55737,7.76825,14.6515,0.675964,5.26123,21.2082,2.45514,-0.355671,-0.0503721
3.82,16.3925,2.55585,7.763669999999999,14.6408,0.679016,5.25818,21.1929,2.45666,-0.349567,-0.0503721
3.84,16.391,2.55737,7.763669999999999,14.6347,0.679016,5.25818,21.166999999999998,2.45666,-0.349567,-0.0503721
