time(s),200367,100130,100132,100136,100134,100133,100128,100131,100351,110407
0.0,18.7866,1.62659,1.61438,2.33459,13.6841,11.4594,2.8991700000000002,3.79028,12.6221,11.6379
0.02,18.8065,1.62659,1.61591,2.33612,13.6871,11.4716,2.8991700000000002,3.79486,12.6205,11.6409
0.04,18.8202,1.63116,1.61133,2.33612,13.6887,11.5005,2.9007,3.79333,12.6205,11.6409
0.06,18.8324,1.62506,1.61133,2.33612,13.6749,11.5097,2.8991700000000002,3.79181,12.6221,11.6516
0.08,18.8431,1.62659,1.61285,2.33459,13.6719,11.5219,2.9022200000000002,3.79181,12.6083,11.6501
0.1,18.8492,1.62811,1.61591,2.33612,13.6719,11.5448,2.9007,3.79333,12.6068,11.6531
0.12,18.8553,1.62506,1.61438,2.33765,13.6642,11.5585,2.9007,3.79333,12.6099,11.6653
0.14,18.8705,1.62964,1.61591,2.33154,13.6627,11.5692,2.89154,3.79333,12.6083,11.6653
0.16,18.8904,1.62811,1.61591,2.33459,13.6642,11.5997,2.88849,3.79333,12.6053,11.6623
0.18,18.9056,1.62659,1.61285,2.33765,13.6505,11.6058,2.88544,3.77808,12.6083,11.675999999999998
0.2,18.9163,1.62506,1.61285,2.33459,13.649000000000001,11.6196,2.8869599999999997,3.78265,12.6114,11.675999999999998
0.22,18.9331,1.62811,1.61438,2.33765,13.6368,11.6425,2.88849,3.78113,12.6083,11.6745
0.24,18.9453,1.62811,1.61438,2.33612,13.6368,11.6608,2.8900099999999997,3.78113,12.6129,11.6913
0.26,18.956,1.62811,1.61438,2.33765,13.6414,11.6669,2.88849,3.78265,12.6038,11.6867
0.28,18.9621,1.63116,1.61743,2.33612,13.623,11.6898,2.8869599999999997,3.78265,12.6114,11.6882
0.3,18.9804,1.62811,1.61438,2.33917,13.623,11.705,2.88849,3.78113,12.6083,11.6974
0.32,18.9911,1.62964,1.6037,2.33765,13.6215,11.7157,2.88849,3.78418,12.5961,11.6989
0.34,19.0063,1.62506,1.60065,2.33917,13.623,11.7279,2.88849,3.78265,12.5961,11.6989
0.36,19.0186,1.62811,1.6037,2.33917,13.623,11.7538,2.8900099999999997,3.78418,12.5931,11.7126
0.38,19.0277,1.62811,1.61285,2.33612,13.6093,11.7676,2.88849,3.78113,12.5946,11.7111
0.4,19.043,1.62659,1.61285,2.33612,13.6124,11.7783,2.8930700000000003,3.7796,12.5961,11.7249
0.42,19.0536,1.62811,1.6037,2.33765,13.6108,11.8042,2.88849,3.78113,12.5961,11.7264
0.44,19.0674,1.62659,1.61285,2.33307,13.6139,11.8118,2.8900099999999997,3.7796,12.5931,11.7218
0.46,19.0811,1.62964,1.61591,2.33612,13.6108,11.8256,2.88849,3.78113,12.5961,11.7386
0.48,19.0918,1.62506,1.60217,2.33154,13.6139,11.85,2.8900099999999997,3.7796,12.5977,11.7371
0.5,19.1055,1.62811,1.6037,2.33765,13.6108,11.8668,2.89154,3.7796,12.5946,11.7493
0.52,19.1147,1.62811,1.60065,2.33459,13.6002,11.8881,2.88849,3.78265,12.5946,11.7493
0.54,19.1254,1.62964,1.6037,2.33459,13.5986,11.9125,2.8869599999999997,3.78113,12.5977,11.7508
0.56,19.1391,1.62659,1.60065,2.33459,13.5986,11.9263,2.8900099999999997,3.78265,12.5961,11.763
0.58,19.1483,1.62659,1.6037,2.33612,13.6032,11.9507,2.8900099999999997,3.78265,12.5977,11.7599
0.6,19.165,1.62811,1.60065,2.33459,13.6002,11.972000000000001,2.8900099999999997,3.78265,12.5961,11.7599
0.62,19.1711,1.62811,1.60522,2.33307,13.6017,11.9904,2.88849,3.78113,12.5961,11.7737
0.64,19.1895,1.62811,1.6037,2.33917,13.5971,12.0148,2.88849,3.77808,12.5824,11.7691
0.66,19.1849,1.62506,1.60217,2.33612,13.588,12.0224,2.8869599999999997,3.78113,12.5824,11.7722
0.68,19.1956,1.62811,1.60522,2.33459,13.588,12.0514,2.8839099999999998,3.78113,12.5854,11.7859
0.7,19.2078,1.62964,1.60065,2.33154,13.5864,12.0743,2.88544,3.7796,12.5809,11.7874
0.72,19.2215,1.62964,1.60065,2.33459,13.5864,12.0926,2.8869599999999997,3.78113,12.5839,11.7859
0.74,19.2307,1.62811,1.61438,2.33612,13.5864,12.1109,2.87323,3.7796,12.5839,11.7981
0.76,19.2459,1.62659,1.61591,2.33612,13.591,12.1353,2.8747599999999998,3.7689199999999996,12.5824,11.7981
0.78,19.2566,1.62659,1.61133,2.33917,13.5864,12.1582,2.87628,3.7673900000000002,12.5839,11.7981
0.8,19.2581,1.62811,1.61591,2.33459,13.5864,12.1841,2.87933,3.7673900000000002,12.5854,11.8118
0.82,19.2703,1.63116,1.61591,2.33612,13.5895,12.2101,2.8778099999999998,3.7689199999999996,12.5839,11.8057
0.84,19.281,1.62811,1.61591,2.33765,13.5864,12.2314,2.87323,3.7689199999999996,12.5839,11.8088
0.86,19.2825,1.62811,1.61438,2.33917,13.5864,12.2589,2.8747599999999998,3.7719699999999996,12.5824,11.824000000000002
0.88,19.2947,1.62811,1.61133,2.33765,13.5864,12.2803,2.87933,3.7673900000000002,12.5717,11.821
0.9,19.2978,1.62659,1.61591,2.33459,13.588,12.3032,2.87628,3.7689199999999996,12.5732,11.8225
0.92,19.3085,1.62964,1.61591,2.33612,13.6017,12.3276,2.87628,3.7689199999999996,12.5717,11.8179
0.94,19.3085,1.62659,1.61591,2.33459,13.6002,12.3428,2.88238,3.7673900000000002,12.5717,11.8317
0.96,19.3222,1.63269,1.61896,2.33765,13.6002,12.3657,2.87628,3.7719699999999996,12.5702,11.8301
0.98,19.3253,1.62506,1.61438,2.33612,13.6108,12.380999999999998,2.8747599999999998,3.77045,12.5702,11.8347
1.0,19.3192,1.62811,1.61591,2.33612,13.6124,12.3932,2.8778099999999998,3.77045,12.5717,11.8469
1.02,19.3329,1.62811,1.60522,2.33459,13.6246,12.4161,2.87933,3.7689199999999996,12.5702,11.8484
1.04,19.3314,1.62506,1.60217,2.33459,13.6398,12.4252,2.87933,3.7673900000000002,12.5717,11.8439
1.06,19.3329,1.63116,1.6037,2.33459,13.6505,12.4512,2.87628,3.7673900000000002,12.5732,11.8607
1.08,19.3298,1.62659,1.60065,2.33612,13.6597,12.4664,2.87628,3.7673900000000002,12.5717,11.8622
1.1,19.3451,1.63269,1.60065,2.33765,13.6765,12.4908,2.8747599999999998,3.7643400000000002,12.5732,11.8576
1.12,19.3466,1.62964,1.6037,2.33612,13.6856,12.5015,2.8747599999999998,3.7673900000000002,12.5717,11.8729
1.14,19.3466,1.62964,1.60217,2.33612,13.71,12.5244,2.87323,3.7673900000000002,12.5732,11.8713
1.16,19.342,1.62964,1.60065,2.33459,13.735999999999999,12.5519,2.87628,3.7673900000000002,12.5687,11.8729
1.18,19.3481,1.62964,1.60217,2.33765,13.7604,12.5763,2.8747599999999998,3.7673900000000002,12.5748,11.8713
1.2,19.3451,1.62506,1.60522,2.33917,13.7802,12.59,2.87628,3.7689199999999996,12.5702,11.8851
1.22,19.342,1.62811,1.60065,2.33459,13.7939,12.6114,2.8747599999999998,3.7673900000000002,12.5717,11.8835
1.24,19.3451,1.62506,1.60217,2.33459,13.825999999999999,12.6343,2.87628,3.77045,12.5717,11.8866
1.26,19.3466,1.62659,1.60065,2.33612,13.8596,12.6633,2.87628,3.7689199999999996,12.5763,11.8973
1.28,19.3436,1.62811,1.60065,2.33459,13.8794,12.6831,2.87323,3.7658699999999996,12.5687,11.8973
1.3,19.3466,1.62964,1.6037,2.33765,13.9038,12.709000000000001,2.87628,3.75366,12.5717,11.9095
1.32,19.3481,1.62811,1.60522,2.33765,13.9359,12.7365,2.8747599999999998,3.7551900000000002,12.5717,11.908
1.34,19.3436,1.62811,1.6037,2.3407,13.9648,12.7579,2.87628,3.7551900000000002,12.5702,11.911
1.36,19.3329,1.62811,1.60522,2.33612,13.9999,12.7808,2.87628,3.7551900000000002,12.5839,11.9217
1.38,19.3329,1.62964,1.60522,2.33765,14.0305,12.8052,2.8778099999999998,3.7582400000000002,12.5824,11.9202
1.4,19.3329,1.62659,1.60522,2.33765,14.0671,12.8311,2.8747599999999998,3.75671,12.5854,11.9324
1.42,19.3344,1.62964,1.60065,2.33459,14.0884,12.8601,2.87628,3.75366,12.5839,11.9354
1.44,19.3359,1.62964,1.60065,2.33459,14.1266,12.8922,2.87323,3.7551900000000002,12.5961,11.9308
1.46,19.3314,1.62811,1.60217,2.33459,14.1479,12.915,2.87933,3.7582400000000002,12.5961,11.9324
1.48,19.3207,1.62964,1.60217,2.33612,14.1876,12.9425,2.87628,3.7582400000000002,12.6068,11.9461
1.5,19.3176,1.62506,1.6037,2.33612,14.2105,12.9623,2.87628,3.7551900000000002,12.6129,11.9461
1.52,19.3222,1.62964,1.6037,2.33917,14.2364,12.9898,2.87628,3.75366,12.6205,11.9431
1.54,19.3207,1.62506,1.6037,2.33307,14.2685,13.0219,2.87628,3.75671,12.6221,11.9583
1.56,19.3222,1.62964,1.60065,2.33459,14.2975,13.0493,2.86407,3.7551900000000002,12.6343,11.9568
1.58,19.3085,1.62811,1.60217,2.33765,14.3204,13.0783,2.86713,3.7582400000000002,12.6434,11.9568
1.6,19.3085,1.63116,1.60522,2.33612,14.3478,13.1088,2.8656,3.75671,12.6434,11.969000000000001
1.62,19.3069,1.63116,1.6037,2.33765,14.3723,13.1363,2.86255,3.7582400000000002,12.6572,11.9705
1.64,19.31,1.62964,1.6037,2.33765,14.3982,13.1561,2.86407,3.7597699999999996,12.6709,11.9675
1.66,19.3085,1.62964,1.60217,2.33459,14.4058,13.1958,2.86255,3.75671,12.6816,11.9812
1.68,19.2947,1.62811,1.60522,2.33459,14.4333,13.2233,2.86102,3.7551900000000002,12.706,11.9827
1.7,19.2947,1.63269,1.60217,2.33765,14.4562,13.2462,2.86102,3.7582400000000002,12.7213,11.9812
1.72,19.2917,1.62964,1.60217,2.33765,14.4684,13.269,2.86713,3.7582400000000002,12.7335,11.9965
1.74,19.2917,1.62506,1.60065,2.33765,14.4958,13.3041,2.86407,3.75366,12.7441,11.9949
1.76,19.2947,1.62811,1.60217,2.3239099999999997,14.5065,13.3331,2.86407,3.7597699999999996,12.7686,12.0056
1.78,19.2932,1.62659,1.60217,2.31934,14.5172,13.3575,2.8656,3.75671,12.7945,12.0041
1.8,19.2978,1.62506,1.59912,2.32544,14.5416,13.3926,2.86255,3.7551900000000002,12.8067,12.0071
1.82,19.2993,1.62811,1.60217,2.3208599999999997,14.5538,13.4171,2.8656,3.75366,12.8311,12.0193
1.84,19.313,1.62811,1.6037,2.32544,14.5676,13.4384,2.86102,3.7551900000000002,12.854000000000001,12.0193
1.86,19.3085,1.62964,1.60065,2.3239099999999997,14.5798,13.4689,2.8656,3.7582400000000002,12.8754,12.0209
1.88,19.3069,1.62659,1.60217,2.32544,14.5889,13.504000000000001,2.86407,3.74603,12.8998,12.0285
1.9,19.3176,1.62659,1.60522,2.32544,14.6011,13.5254,2.86255,3.74451,12.9242,12.0285
1.92,19.3222,1.62811,1.6037,2.32544,14.6149,13.5483,2.86407,3.74451,12.9471,12.0316
1.94,19.3314,1.62811,1.60217,2.3239099999999997,14.6271,13.5635,2.8595,3.74451,12.972999999999999,12.0392
1.96,19.3329,1.62811,1.6037,2.3239099999999997,14.6378,13.591,2.86255,3.74451,12.999,12.0438
1.98,19.3436,1.62964,1.6037,2.32239,14.652999999999999,13.6139,2.86407,3.74451,13.0295,12.0407
2.0,19.3604,1.62964,1.6037,2.32239,14.6637,13.6353,2.86407,3.74298,13.06,12.056
2.02,19.3665,1.62811,1.60217,2.32544,14.6759,13.649000000000001,2.8656,3.74298,13.092,12.0575
2.04,19.3832,1.62659,1.60217,2.3239099999999997,14.6805,13.6734,2.86255,3.74298,13.120999999999999,12.0575
2.06,19.3939,1.62811,1.6037,2.32239,14.6881,13.7009,2.8656,3.74298,13.1577,12.0666
2.08,19.3924,1.62659,1.6037,2.32544,14.6988,13.7115,2.86407,3.74451,13.1805,12.0712
2.1,19.4077,1.62964,1.60065,2.32544,14.7003,13.735999999999999,2.86407,3.74451,13.2202,12.0789
2.12,19.4168,1.62659,1.60217,2.3239099999999997,14.7125,13.7604,2.8656,3.74451,13.2446,12.0804
2.14,19.429000000000002,1.62964,1.60065,2.32239,14.710999999999999,13.7863,2.86255,3.74451,13.2812,12.0804
2.16,19.4473,1.62506,1.60217,2.33002,14.7263,13.7955,2.86407,3.74451,13.3087,12.0911
2.18,19.4672,1.62506,1.60065,2.3239099999999997,14.7247,13.8214,2.8595,3.74298,13.3408,12.0926
2.2,19.4809,1.62964,1.60522,2.32544,14.7385,13.8321,2.86407,3.74145,13.3759,12.0941
2.22,19.4916,1.62811,1.60217,2.3239099999999997,14.7415,13.8458,2.86407,3.74298,13.4033,12.1002
2.24,19.5023,1.62964,1.60522,2.32544,14.7369,13.8565,2.86255,3.74298,13.4338,12.1017
2.26,19.5175,1.63116,1.6037,2.32544,14.7507,13.8718,2.87323,3.74298,13.4628,12.1063
2.28,19.5282,1.63269,1.6037,2.32239,14.7507,13.8794,2.8747599999999998,3.74298,13.501,12.1033
2.3,19.5404,1.62811,1.60217,2.33459,14.7507,13.8931,2.8747599999999998,3.74298,13.5239,12.1185
2.32,19.5526,1.62811,1.6037,2.33612,14.7491,13.9053,2.87628,3.74451,13.5559,12.1155
2.34,19.5679,1.62659,1.60217,2.33765,14.7491,13.9175,2.87628,3.74756,13.5818,12.1155
2.36,19.577,1.62964,1.60217,2.33612,14.7629,13.9343,2.8747599999999998,3.74298,13.6093,12.1277
2.38,19.5908,1.62353,1.60217,2.33612,14.7598,13.9313,2.8778099999999998,3.74298,13.6322,12.1292
2.4,19.5877,1.62353,1.60217,2.33459,14.7629,13.945,2.8778099999999998,3.74451,13.6581,12.1292
2.42,19.5984,1.62964,1.60065,2.33765,14.7644,13.9572,2.87628,3.74603,13.6932,12.1262
2.44,19.6136,1.62506,1.6037,2.33459,14.7644,13.9603,2.8747599999999998,3.74603,13.7207,12.1384
2.46,19.6106,1.62811,1.6037,2.33612,14.7629,13.9694,2.8808599999999998,3.74451,13.7466,12.1399
2.48,19.6106,1.62811,1.60217,2.33765,14.7675,13.9786,2.8747599999999998,3.73993,13.767999999999999,12.1399
2.5,19.6289,1.62659,1.60217,2.33612,14.7629,13.9816,2.87628,3.7307699999999997,13.7924,12.1429
2.52,19.6274,1.62964,1.60217,2.33459,14.7751,13.9938,2.87323,3.73383,13.8229,12.1552
2.54,19.6304,1.62506,1.60217,2.33612,14.772,13.9969,2.87628,3.7323,13.8428,12.1536
2.56,19.6259,1.62811,1.60217,2.33765,14.7751,14.005999999999998,2.8747599999999998,3.7323,13.8702,12.1567
2.58,19.6304,1.62659,1.60217,2.33307,14.7736,14.005999999999998,2.8747599999999998,3.7307699999999997,13.8794,12.1552
2.6,19.6381,1.63116,1.60065,2.33612,14.7781,14.0182,2.8747599999999998,3.7307699999999997,13.9038,12.1521
2.62,19.635,1.62506,1.6037,2.33917,14.7751,14.0167,2.8900099999999997,3.7323,13.9297,12.1658
2.64,19.6381,1.62659,1.60065,2.33765,14.7736,14.0182,2.8869599999999997,3.73383,13.942,12.1628
2.66,19.6289,1.62659,1.60522,2.32544,14.7766,14.0289,2.89154,3.7307699999999997,13.9618,12.1643
2.68,19.6259,1.62506,1.6037,2.3239099999999997,14.7644,14.0274,2.88849,3.7307699999999997,13.9786,12.1658
2.7,19.6274,1.62659,1.6037,2.32544,14.7629,14.0305,2.8869599999999997,3.72925,13.9877,12.1643
2.72,19.6274,1.62506,1.6037,2.3239099999999997,14.7629,14.0442,2.88849,3.7323,14.0152,12.1796
2.74,19.6289,1.62811,1.60522,2.32239,14.7614,14.0396,2.88849,3.7323,14.0305,12.177999999999999
2.76,19.6152,1.63116,1.60217,2.3208599999999997,14.7644,14.0396,2.8869599999999997,3.7323,14.0381,12.1796
2.78,19.6152,1.62659,1.58844,2.32239,14.7491,14.0457,2.8869599999999997,3.7307699999999997,14.0549,12.175
2.8,19.6014,1.62964,1.59302,2.3269599999999997,14.7491,14.0411,2.88849,3.73383,14.0747,12.175
2.82,19.6014,1.62659,1.58997,2.3269599999999997,14.7507,14.0533,2.88849,3.73383,14.09,12.1902
2.84,19.5938,1.62506,1.59302,2.32544,14.7522,14.0533,2.88849,3.7307699999999997,14.1006,12.1887
2.86,19.5877,1.62659,1.58997,2.3208599999999997,14.7339,14.0533,2.88849,3.73383,14.1022,12.1902
2.88,19.5755,1.62964,1.59302,2.3239099999999997,14.7385,14.0549,2.8869599999999997,3.73383,14.1113,12.2025
2.9,19.5786,1.62811,1.58844,2.3239099999999997,14.74,14.0503,2.88849,3.7307699999999997,14.1235,12.2025
2.92,19.5648,1.62659,1.59302,2.3239099999999997,14.7247,14.0533,2.88849,3.7307699999999997,14.1373,12.2025
2.94,19.5526,1.62964,1.58844,2.32544,14.7232,14.0518,2.8869599999999997,3.7323,14.1373,12.2116
2.96,19.5541,1.62811,1.58997,2.3269599999999997,14.714,14.0533,2.88849,3.7307699999999997,14.1464,12.2177
2.98,19.5358,1.62659,1.58844,2.32544,14.7125,14.0549,2.8869599999999997,3.73383,14.1647,12.2238
3.0,19.5267,1.62811,1.58997,2.32544,14.6988,14.0411,2.88849,3.72925,14.1602,12.2284
3.02,19.5175,1.62811,1.59454,2.32544,14.6973,14.0396,2.8869599999999997,3.73383,14.1739,12.2269
3.04,19.5038,1.62964,1.59149,2.32239,14.6896,14.0411,2.8869599999999997,3.7277199999999997,14.1739,12.2391
3.06,19.4931,1.62353,1.58997,2.32239,14.6759,14.0427,2.8930700000000003,3.7323,14.1846,12.2375
3.08,19.4809,1.62353,1.59149,2.32544,14.6759,14.0442,2.9007,3.7323,14.183,12.2345
3.1,19.4809,1.62964,1.58844,2.32544,14.6622,14.0411,2.9007,3.7307699999999997,14.1968,12.2543
3.12,19.4687,1.62964,1.58997,2.3208599999999997,14.6515,14.0274,2.90375,3.7231400000000003,14.1968,12.2513
3.14,19.4565,1.62811,1.58997,2.3239099999999997,14.6393,14.0305,2.90375,3.7185699999999997,14.2075,12.2498
3.16,19.4443,1.62964,1.58844,2.32239,14.6362,14.0259,2.9022200000000002,3.7200900000000003,14.209000000000001,12.262
3.18,19.4336,1.62811,1.58997,2.3239099999999997,14.6255,14.032,2.9007,3.7155099999999996,14.2212,12.2604
3.2,19.4199,1.62811,1.58844,2.32239,14.6164,14.0167,2.9007,3.7155099999999996,14.2181,12.262
3.22,19.4046,1.63116,1.58997,2.32239,14.6011,14.0152,2.89764,3.7185699999999997,14.2212,12.2757
3.24,19.397000000000002,1.62659,1.58844,2.3239099999999997,14.5996,14.0182,2.9052700000000002,3.7200900000000003,14.2227,12.2757
3.26,19.3832,1.63116,1.58997,2.3239099999999997,14.592,14.0182,2.9007,3.7185699999999997,14.2364,12.2894
3.28,19.3665,1.62506,1.59454,2.32239,14.5828,14.0167,2.9007,3.7231400000000003,14.2319,12.2879
3.3,19.3573,1.62659,1.58844,2.3239099999999997,14.5782,14.0182,2.9007,3.7185699999999997,14.2349,12.2879
3.32,19.3451,1.62964,1.58997,2.32239,14.5691,14.0182,2.9022200000000002,3.7200900000000003,14.2349,12.3016
3.34,19.3375,1.62964,1.59149,2.32544,14.5676,14.0152,2.9022200000000002,3.7185699999999997,14.2364,12.3001
3.36,19.3283,1.63116,1.58844,2.32544,14.5493,14.0182,2.9007,3.7200900000000003,14.2456,12.3123
3.38,19.3161,1.62659,1.59149,2.32544,14.5554,14.0182,2.9052700000000002,3.7185699999999997,14.2502,12.3138
3.4,19.2978,1.62964,1.58997,2.3208599999999997,14.5401,14.0213,2.9052700000000002,3.7170400000000003,14.2441,12.3276
3.42,19.2841,1.62659,1.58997,2.3208599999999997,14.5309,14.0182,2.8991700000000002,3.7200900000000003,14.2502,12.3245
3.44,19.2703,1.62964,1.58997,2.32544,14.5309,14.0152,2.8991700000000002,3.7185699999999997,14.2441,12.3245
3.46,19.2551,1.62201,1.58844,2.31934,14.5187,13.9999,2.9007,3.7185699999999997,14.2471,12.3367
3.48,19.2459,1.62659,1.59302,2.3239099999999997,14.5081,14.0045,2.89764,3.7185699999999997,14.2502,12.3352
3.5,19.2383,1.62506,1.59302,2.32239,14.5035,14.005999999999998,2.9007,3.7200900000000003,14.2456,12.3489
3.52,19.2215,1.62659,1.59149,2.3269599999999997,14.4928,14.0076,2.89764,3.7170400000000003,14.2471,12.3505
3.54,19.1986,1.62811,1.58691,2.32544,14.4806,13.9908,2.8991700000000002,3.7231400000000003,14.2456,12.3505
3.56,19.1833,1.62659,1.58691,2.32544,14.4806,13.9908,2.9007,3.7185699999999997,14.238,12.3581
3.58,19.1727,1.62964,1.58997,2.3239099999999997,14.4684,13.9923,2.8991700000000002,3.7200900000000003,14.2364,12.3611
3.6,19.1605,1.63116,1.58844,2.32239,14.4592,13.9786,2.8961200000000002,3.7185699999999997,14.2334,12.3749
3.62,19.1513,1.62811,1.58691,2.3269599999999997,14.4547,13.9832,2.9022200000000002,3.7200900000000003,14.2349,12.3703
3.64,19.136,1.62964,1.58844,2.32239,14.4455,13.9816,2.9007,3.7078900000000004,14.238,12.3871
3.66,19.1193,1.62659,1.59149,2.32544,14.4318,13.9694,2.9022200000000002,3.7094099999999997,14.2212,12.3871
3.68,19.0994,1.63116,1.58997,2.3269599999999997,14.4211,13.9679,2.9007,3.7063599999999997,14.2197,12.3947
3.7,19.0887,1.62659,1.58844,2.32544,14.4196,13.9709,2.9022200000000002,3.7094099999999997,14.2242,12.3993
3.72,19.0765,1.62964,1.59149,2.3239099999999997,14.4073,13.9526,2.9022200000000002,3.7094099999999997,14.2105,12.3962
3.74,19.0689,1.62659,1.59149,2.32544,14.4089,13.9587,2.9007,3.7048300000000003,14.2105,12.4115
3.76,19.0552,1.62659,1.58997,2.32239,14.4104,13.942,2.89764,3.7078900000000004,14.2059,12.413
3.78,19.0384,1.62506,1.59149,2.3239099999999997,14.3951,13.9435,2.9022200000000002,3.7109400000000003,14.1953,12.41
3.8,19.0277,1.62659,1.58844,2.3208599999999997,14.4043,13.9374,2.9022200000000002,3.7063599999999997,14.1983,12.4222
3.82,19.0079,1.63116,1.59302,2.31934,14.4058,13.9328,2.9007,3.7094099999999997,14.1968,12.4207
3.84,18.988,1.63116,1.58844,2.32544,14.4104,13.9206,2.9007,3.7078900000000004,14.183,12.4374
3.86,18.9804,1.62659,1.58691,2.32239,14.4211,13.9175,2.9022200000000002,3.7063599999999997,14.1846,12.4344
3.88,18.9651,1.62811,1.58844,2.3239099999999997,14.4211,13.9084,2.9007,3.7109400000000003,14.1846,12.4359
3.9,18.9499,1.62506,1.58844,2.3239099999999997,14.4333,13.9084,2.9007,3.7078900000000004,14.1739,12.4359
3.92,18.9438,1.62811,1.58997,2.3239099999999997,14.4455,13.8931,2.90375,3.7063599999999997,14.1708,12.4466
3.94,18.9163,1.62964,1.58997,2.3239099999999997,14.4577,13.8931,2.9007,3.7078900000000004,14.1724,12.4512
3.96,18.9056,1.62964,1.58844,2.3269599999999997,14.4791,13.884,2.8991700000000002,3.7094099999999997,14.1602,12.4481
3.98,18.8904,1.62659,1.58844,2.3239099999999997,14.4928,13.884,2.9022200000000002,3.7048300000000003,14.1602,12.4588
4.0,18.8828,1.62811,1.58997,2.3269599999999997,14.5035,13.8702,2.9007,3.7078900000000004,14.1541,12.4557
4.02,18.8675,1.62811,1.58997,2.3239099999999997,14.5264,13.8596,2.9129,3.7109400000000003,14.151,12.4603
4.04,18.8583,1.62811,1.58844,2.32239,14.5401,13.8596,2.91443,3.7048300000000003,14.1464,12.4603
4.06,18.8446,1.63116,1.58997,2.32239,14.562999999999999,13.8443,2.8991700000000002,3.7094099999999997,14.1373,12.470999999999998
