time(s),100316,100317,100315,200392,110431,110450,100322,100320,100318,100321,100323
0.0,13.0051,4.39911,13.4979,7.864380000000001,0.793456,9.43423,13.3636,9.69177,7.11517,21.2555,3.07159
0.02,13.030999999999999,4.40369,13.4964,7.8598,0.790405,9.42661,13.3545,9.69177,7.11517,21.2189,3.07159
0.04,13.0539,4.40674,13.4995,7.864380000000001,0.794982,9.42508,13.356,9.69177,7.12585,21.1899,3.07007
0.06,13.0814,4.40216,13.4888,7.86591,0.793456,9.4144,13.3575,9.69177,7.12585,21.1594,3.07312
0.08,13.1088,4.41437,13.4903,7.864380000000001,0.791931,9.41135,13.3545,9.69177,7.12891,21.1212,3.07312
0.1,13.1317,4.42047,13.4842,7.864380000000001,0.794982,9.40067,13.356,9.69177,7.12585,21.0922,3.06854
0.12,13.1546,4.41132,13.4842,7.85065,0.791931,9.39456,13.3545,9.69177,7.1273800000000005,21.0587,3.07159
0.14,13.1821,4.41437,13.4735,7.85217,0.793456,9.38846,13.356,9.69177,7.1243300000000005,21.0358,3.07159
0.16,13.2034,4.41894,13.475,7.847589999999999,0.796508,9.37473,13.353,9.69177,7.1273800000000005,20.9976,3.07007
0.18,13.2156,4.41589,13.4766,7.84912,0.793456,9.37625,13.3545,9.69177,7.12585,20.9732,3.06854
0.2,13.2431,4.41589,13.475,7.84607,0.790405,9.36252,13.3453,9.69177,7.1273800000000005,20.9366,3.07007
0.22,13.2538,4.4281,13.475,7.847589999999999,0.796508,9.35336,13.3423,9.69177,7.12585,20.9122,3.07007
0.24,13.2782,4.4281,13.4583,7.85065,0.790405,9.35184,13.3423,9.69177,7.1273800000000005,20.8878,3.07159
0.26,13.2965,4.4281,13.4628,7.85217,0.791931,9.3381,13.3408,9.69177,7.12585,20.8633,3.07159
0.28,13.3163,4.42352,13.4644,7.85217,0.791931,9.3381,13.3408,9.69177,7.1273800000000005,20.8389,3.07312
0.3,13.3255,4.42657,13.4674,7.85217,0.796508,9.32895,13.3469,9.69177,7.12585,20.8115,3.0761700000000003
0.32,13.3423,4.42505,13.4476,7.8537,0.791931,9.31674,13.3408,9.69177,7.1273800000000005,20.7886,3.07007
0.34,13.3499,4.42963,13.4521,7.85217,0.796508,9.31674,13.3438,9.69177,7.1304300000000005,20.7703,3.07159
0.36,13.3743,4.4281,13.446,7.85217,0.791931,9.30454,13.3453,9.69177,7.1273800000000005,20.7458,3.07159
0.38,13.3865,4.42505,13.4521,7.85065,0.790405,9.28928,13.3286,9.69177,7.12585,20.7169,3.07007
0.4,13.4018,4.43878,13.4369,7.85065,0.790405,9.28928,13.3316,9.69177,7.12891,20.6955,3.07007
0.42,13.4125,4.44183,13.4384,7.8537,0.790405,9.28165,13.3316,9.69177,7.12585,20.668000000000003,3.07007
0.44,13.4201,4.43878,13.443,7.8537,0.793456,9.26639,13.324000000000002,9.69177,7.12585,20.6436,3.07312
0.46,13.443,4.44183,13.4262,7.85217,0.793456,9.26334,13.3331,9.69177,7.12585,20.6314,3.07007
0.48,13.4506,4.43878,13.4262,7.85217,0.791931,9.25266,13.3301,9.69177,7.1167,20.607,3.06854
0.5,13.4613,4.44031,13.414000000000001,7.8537,0.794982,9.24197,13.3301,9.69177,7.11365,20.5826,3.07007
0.52,13.472000000000001,4.44031,13.4155,7.8537,0.791931,9.22977,13.3301,9.69177,7.11822,20.5612,3.06549
0.54,13.4872,4.44183,13.414000000000001,7.85065,0.791931,9.22977,13.3301,9.69177,7.11822,20.5383,3.06854
0.56,13.501,4.43878,13.4018,7.85065,0.794982,9.21909,13.3331,9.69177,7.1106,20.5139,3.07159
0.58,13.5117,4.44031,13.3987,7.8537,0.793456,9.20535,13.3179,9.69177,7.11517,20.4834,3.06854
0.6,13.5223,4.43878,13.4003,7.847589999999999,0.791931,9.19009,13.3194,9.69177,7.1167,20.4605,3.07159
0.62,13.5239,4.45099,13.4003,7.85217,0.794982,9.18246,13.3163,9.69177,7.11365,20.4361,3.08075
0.64,13.5361,4.45404,13.3987,7.85065,0.794982,9.18094,13.3179,9.69177,7.11822,20.4163,3.0822700000000003
0.66,13.5468,4.45099,13.4003,7.85065,0.793456,9.17026,13.3179,9.69177,7.1167,20.3888,3.0822700000000003
0.68,13.559000000000001,4.45099,13.3865,7.84912,0.790405,9.15652,13.3194,9.69177,7.11517,20.3629,3.08075
0.7,13.5727,4.45099,13.3896,7.84912,0.794982,9.15805,13.3148,9.69177,7.11517,20.3369,3.0822700000000003
0.72,13.5727,4.45251,13.4018,7.85065,0.793456,9.14279,13.3163,9.69177,7.11365,20.3156,3.0792200000000003
0.74,13.5849,4.44946,13.3987,7.85065,0.796508,9.13516,13.3179,9.69177,7.11517,20.3018,3.0838
0.76,13.5971,4.45099,13.4018,7.8537,0.788879,9.13211,13.3179,9.69177,7.11822,20.2744,3.0822700000000003
0.78,13.6108,4.45251,13.4018,7.8537,0.793456,9.1199,13.3072,9.69177,7.11517,20.2667,3.0822700000000003
0.8,13.6093,4.45862,13.414000000000001,7.85065,0.796508,9.10464,13.3072,9.69177,7.11975,20.2377,3.08533
0.82,13.6215,4.4632,13.4094,7.85065,0.793456,9.1077,13.3072,9.69177,7.11517,20.2286,3.08075
0.84,13.6215,4.4632,13.4247,7.85217,0.790405,9.09244,13.3041,9.69177,7.11365,20.2179,3.08075
0.86,13.6337,4.4632,13.4399,7.8537,0.794982,9.09244,13.3041,9.69177,7.11212,20.1935,3.08075
0.88,13.6353,4.46625,13.4491,7.85217,0.796508,9.08328,13.3072,9.69177,7.11365,20.1797,3.0822700000000003
0.9,13.6475,4.46472,13.4628,7.85522,0.796508,9.068019999999999,13.3057,9.69177,7.11212,20.166,3.0838
0.92,13.6459,4.46625,13.4659,7.85522,0.793456,9.07108,13.3041,9.69177,7.101439999999999,20.1401,3.0822700000000003
0.94,13.6459,4.4632,13.4842,7.85217,0.793456,9.058869999999999,13.3057,9.69177,7.101439999999999,20.1309,3.08533
0.96,13.6566,4.4632,13.4995,7.84302,0.794982,9.055819999999999,13.3041,9.69177,7.101439999999999,20.1126,3.0838
0.98,13.6566,4.46472,13.5101,7.838439999999999,0.794982,9.04514,13.3072,9.69177,7.101439999999999,20.1004,3.08533
1.0,13.6612,4.46472,13.5239,7.841489999999999,0.790405,9.046660000000001,13.3041,9.69177,7.101439999999999,20.0806,3.0822700000000003
1.02,13.6719,4.47693,13.5498,7.838439999999999,0.794982,9.02988,13.3026,9.69177,7.101439999999999,20.0699,3.08533
1.04,13.6719,4.47845,13.559000000000001,7.838439999999999,0.791931,9.03445,13.3041,9.69177,7.10297,20.0546,3.0838
1.06,13.6719,4.4754,13.5864,7.83997,0.796508,9.017669999999999,13.3087,9.69177,7.104489999999999,20.0424,3.0792200000000003
1.08,13.6703,4.4754,13.6093,7.8369100000000005,0.793456,9.02225,13.3072,9.69177,7.104489999999999,20.0333,3.08685
1.1,13.6734,4.47693,13.62,7.838439999999999,0.793456,9.005460000000001,13.3041,9.69177,7.101439999999999,20.018,3.0838
1.12,13.6871,4.4754,13.6459,7.8369100000000005,0.790405,9.008510000000001,13.2965,9.69177,7.101439999999999,20.0027,3.0838
1.14,13.6826,4.47235,13.6719,7.838439999999999,0.788879,9.01004,13.2935,9.69177,7.10297,19.9951,3.0838
1.16,13.6841,4.47693,13.7039,7.83997,0.791931,8.99783,13.295,9.69177,7.10297,19.9829,3.0822700000000003
1.18,13.681,4.48608,13.7299,7.838439999999999,0.793456,9.00089,13.2904,9.69177,7.104489999999999,19.9707,3.0822700000000003
1.2,13.677999999999999,4.49066,13.7573,7.838439999999999,0.793456,8.98563,13.295,9.69177,7.101439999999999,19.9554,3.0838
1.22,13.6871,4.48456,13.7894,7.83997,0.790405,8.98563,13.2904,9.69177,7.101439999999999,19.9371,3.0838
1.24,13.6795,4.48914,13.8168,7.838439999999999,0.793456,8.98715,13.295,9.69177,7.10297,19.9188,3.0838
1.26,13.6932,4.48914,13.8397,7.83997,0.791931,8.973419999999999,13.295,9.69177,7.10297,19.9127,3.08075
1.28,13.6932,4.49066,13.8779,7.84302,0.794982,8.973419999999999,13.295,9.69177,7.09991,19.9005,3.08533
1.3,13.6963,4.48456,13.9053,7.83997,0.794982,8.964260000000001,13.2965,9.69177,7.10297,19.8715,3.0838
1.32,13.6978,4.48914,13.9267,7.83997,0.790405,8.961210000000001,13.2965,9.69177,7.101439999999999,19.8624,3.0822700000000003
1.34,13.6932,4.49982,13.9664,7.8369100000000005,0.791931,8.958160000000001,13.295,9.69177,7.104489999999999,19.8364,3.08075
1.36,13.7024,4.50134,13.9908,7.84302,0.793456,8.94595,13.295,9.69177,7.09991,19.8273,3.0838
1.38,13.7054,4.49982,14.0244,7.8369100000000005,0.790405,8.95053,13.2965,9.69177,7.10297,19.7998,3.0822700000000003
1.4,13.7085,4.49829,14.0488,7.8369100000000005,0.793456,8.952060000000001,13.2797,9.69177,7.10297,19.7876,3.0822700000000003
1.42,13.7177,4.49982,14.0793,7.8369100000000005,0.791931,8.93832,13.2797,9.69177,7.10297,19.7739,3.08533
1.44,13.7177,4.50134,14.1098,7.841489999999999,0.790405,8.93527,13.2812,9.69177,7.104489999999999,19.7632,3.0822700000000003
1.46,13.7192,4.50134,14.1327,7.838439999999999,0.791931,8.93375,13.2843,9.69177,7.09991,19.7495,3.0822700000000003
1.48,13.7329,4.49982,14.1602,7.83997,0.791931,8.92459,13.2828,9.69177,7.10602,19.7388,3.08533
1.5,13.7329,4.49982,14.1815,7.83997,0.788879,8.92459,13.2767,9.69177,7.10602,19.7281,3.0838
1.52,13.7436,4.50134,14.2075,7.841489999999999,0.793456,8.92459,13.2797,9.69177,7.101439999999999,19.7311,3.08685
1.54,13.7451,4.51355,14.2319,7.823180000000001,0.791931,8.91544,13.2812,9.69177,7.09991,19.7159,3.0838
1.56,13.7421,4.51355,14.2578,7.829280000000001,0.794982,8.913910000000001,13.2843,9.69177,7.10297,19.7006,3.0822700000000003
1.58,13.7543,4.51202,14.2807,7.8308100000000005,0.791931,8.90018,13.2843,9.69177,7.101439999999999,19.6869,3.0822700000000003
1.6,13.7573,4.51508,14.3036,7.8277600000000005,0.794982,8.8956,13.2828,9.69177,7.10297,19.6762,3.0822700000000003
1.62,13.7665,4.51508,14.3311,7.826230000000001,0.798034,8.8895,13.2812,9.69177,7.09991,19.6777,3.08075
1.64,13.767999999999999,4.51202,14.3555,7.8277600000000005,0.790405,8.8895,13.2828,9.69177,7.104489999999999,19.664,3.0838
1.66,13.7787,4.51202,14.3799,7.8277600000000005,0.794982,8.8895,13.2812,9.69177,7.104489999999999,19.6518,3.0838
1.68,13.7833,4.51355,14.3997,7.826230000000001,0.793456,8.875760000000001,13.2812,9.69177,7.104489999999999,19.6396,3.0822700000000003
1.7,13.7909,4.51355,14.4165,7.829280000000001,0.796508,8.877289999999999,13.2797,9.69177,7.104489999999999,19.6274,3.0838
1.72,13.7909,4.51355,14.4409,7.8277600000000005,0.791931,8.874239999999999,13.2843,9.69177,7.10297,19.6136,3.08075
1.74,13.8062,4.52576,14.4592,7.829280000000001,0.791931,8.8605,13.2812,9.69177,7.101439999999999,19.6182,3.0822700000000003
1.76,13.8077,4.52423,14.4775,7.8308100000000005,0.791931,8.86508,13.2828,9.69177,7.101439999999999,19.6045,3.0838
1.78,13.8184,4.52423,14.502,7.83997,0.794982,8.866610000000001,13.2782,9.69177,7.092280000000001,19.5923,3.0822700000000003
1.8,13.8275,4.52728,14.5111,7.841489999999999,0.794982,8.86508,13.2843,9.69177,7.08771,19.5862,3.0822700000000003
1.82,13.829,4.5227,14.5386,7.83997,0.790405,8.85135,13.2812,9.69177,7.086180000000001,19.5786,3.0838
1.84,13.8428,4.52423,14.5477,7.838439999999999,0.794982,8.8544,13.2858,9.69177,7.092280000000001,19.5679,3.0838
1.86,13.855,4.52728,14.5752,7.838439999999999,0.794982,8.8544,13.2828,9.69177,7.089230000000001,19.5633,3.08533
1.88,13.8611,4.53949,14.5889,7.83997,0.794982,8.8483,13.2812,9.69177,7.08771,19.5557,3.08075
1.9,13.8657,4.53796,14.6149,7.84302,0.794982,8.84372,13.2812,9.69177,7.09076,19.5419,3.0822700000000003
1.92,13.8763,4.53949,14.6332,7.83997,0.788879,8.836089999999999,13.2828,9.69177,7.08771,19.5282,3.08075
1.94,13.8901,4.53644,14.6652,7.844539999999999,0.796508,8.842189999999999,13.2812,9.69177,7.086180000000001,19.516,3.0822700000000003
1.96,13.8885,4.53644,14.6835,7.83997,0.790405,8.82846,13.2828,9.69177,7.086180000000001,19.5023,3.0838
1.98,13.8992,4.53644,14.710999999999999,7.838439999999999,0.793456,8.82388,13.2812,9.69177,7.08771,19.4931,3.08075
2.0,13.913,4.54712,14.7369,7.83997,0.794982,8.82693,13.2965,9.69177,7.09076,19.4809,3.08533
2.02,13.9282,4.54559,14.7629,7.8369100000000005,0.793456,8.8132,13.2965,9.69177,7.089230000000001,19.4702,3.08533
2.04,13.9252,4.54712,14.7964,7.83997,0.791931,8.81473,13.295,9.69177,7.095339999999999,19.458,3.0838
2.06,13.942,4.54864,14.8193,7.83997,0.794982,8.81473,13.295,9.69177,7.08771,19.4458,3.08075
2.08,13.9542,4.54559,14.856,7.8369100000000005,0.794982,8.80252,13.295,9.69177,7.092280000000001,19.4321,3.0822700000000003
2.1,13.9633,4.54864,14.8819,7.835389999999999,0.794982,8.79947,13.3057,9.69177,7.089230000000001,19.4214,3.0822700000000003
2.12,13.9618,4.55322,14.917,7.8369100000000005,0.794982,8.788789999999999,13.3057,9.69177,7.09076,19.4092,3.08685
2.14,13.9786,4.56238,14.9551,7.8369100000000005,0.793456,8.78726,13.3057,9.69177,7.09076,19.3985,3.0822700000000003
2.16,13.9877,4.5639,14.9902,7.838439999999999,0.794982,8.785739999999999,13.3179,9.69177,7.08771,19.3832,3.08075
2.18,14.005999999999998,4.56085,15.0269,7.8369100000000005,0.798034,8.779630000000001,13.3148,9.69177,7.086180000000001,19.3817,3.0822700000000003
2.2,14.0137,4.5639,15.0665,7.838439999999999,0.794982,8.773530000000001,13.3163,9.69177,7.089230000000001,19.3695,3.08075
2.22,14.0259,4.57458,15.0879,7.8369100000000005,0.790405,8.7659,13.327,9.69177,7.08771,19.3573,3.08075
2.24,14.0366,4.57458,15.1276,7.8369100000000005,0.794982,8.76437,13.3316,9.69177,7.09076,19.3558,3.0822700000000003
2.26,14.0503,4.57306,15.1642,7.83997,0.793456,8.7659,13.3331,9.69177,7.089230000000001,19.3436,3.0822700000000003
2.28,14.064,4.57611,15.1993,7.8369100000000005,0.796508,8.753689999999999,13.3423,9.69177,7.092280000000001,19.3344,3.0822700000000003
2.3,14.064,4.5852699999999995,15.2298,7.841489999999999,0.790405,8.75217,13.3438,9.69177,7.089230000000001,19.3375,3.0822700000000003
2.32,14.0778,4.589840000000001,15.2634,7.83997,0.796508,8.750639999999999,13.353,9.69177,7.089230000000001,19.3237,3.0838
2.34,14.0869,4.5852699999999995,15.3,7.83997,0.793456,8.738430000000001,13.3514,9.69177,7.09076,19.31,3.0838
2.36,14.0884,4.589840000000001,15.3244,7.838439999999999,0.791931,8.741489999999999,13.3636,9.69177,7.089230000000001,19.2947,3.0838
2.38,14.0976,4.5883199999999995,15.3549,7.83997,0.796508,8.729280000000001,13.3759,9.69177,7.086180000000001,19.2947,3.0838
2.4,14.1098,4.5883199999999995,15.3824,7.84302,0.794982,8.7247,13.3789,9.69177,7.092280000000001,19.2856,3.0838
2.42,14.1098,4.5852699999999995,15.419,7.83997,0.790405,8.72775,13.3942,9.69177,7.089230000000001,19.2856,3.08075
2.44,14.1235,4.60205,15.4449,7.83997,0.794982,8.71555,13.3972,9.69177,7.08771,19.2719,3.0838
2.46,14.1373,4.599,15.4709,7.838439999999999,0.791931,8.71555,13.4033,9.69177,7.092280000000001,19.2734,3.0822700000000003
2.48,14.1342,4.599,15.4938,7.838439999999999,0.793456,8.71707,13.4155,9.69177,7.092280000000001,19.2612,3.08533
2.5,14.1479,4.5974699999999995,15.5151,7.844539999999999,0.793456,8.70181,13.4277,9.69177,7.089230000000001,19.2612,3.0838
2.52,14.1495,4.5974699999999995,15.5457,7.838439999999999,0.794982,8.70486,13.4399,9.69177,7.09076,19.2459,3.0838
2.54,14.1586,4.6005199999999995,15.5655,7.838439999999999,0.791931,8.688080000000001,13.4384,9.69177,7.09076,19.2398,3.0822700000000003
2.56,14.1617,4.599,15.5914,7.838439999999999,0.793456,8.69266,13.4521,9.69177,7.089230000000001,19.2383,3.0838
2.58,14.1708,4.5974699999999995,15.6006,7.8369100000000005,0.790405,8.691130000000001,13.4659,9.69177,7.089230000000001,19.223,3.0822700000000003
2.6,14.1846,4.61273,15.6158,7.83997,0.790405,8.68045,13.4628,9.69177,7.089230000000001,19.2123,3.0822700000000003
2.62,14.1846,4.60968,15.6387,7.83997,0.794982,8.67892,13.4796,9.69177,7.09076,19.1986,3.0822700000000003
2.64,14.1968,4.61121,15.6494,7.841489999999999,0.793456,8.67587,13.4766,9.69177,7.08771,19.1879,3.0838
2.66,14.1937,4.61121,15.6616,7.83997,0.796508,8.668239999999999,13.4903,9.69177,7.08771,19.1895,3.0822700000000003
2.68,14.2029,4.61273,15.6754,7.8369100000000005,0.793456,8.668239999999999,13.501,9.69177,7.089230000000001,19.1772,3.0822700000000003
2.7,14.209000000000001,4.61273,15.6891,7.83997,0.791931,8.66672,13.501,9.69177,7.09381,19.1635,3.08075
2.72,14.2059,4.60968,15.7013,7.841489999999999,0.791931,8.65146,13.5132,9.69177,7.089230000000001,19.1513,3.08075
2.74,14.2212,4.60968,15.715,7.83997,0.791931,8.65451,13.5178,9.69177,7.09076,19.133,3.0822700000000003
2.76,14.2212,4.62341,15.7288,7.8369100000000005,0.793456,8.64383,13.5269,9.69177,7.09381,19.1162,3.08075
2.78,14.2197,4.62341,15.7379,7.838439999999999,0.794982,8.63773,13.5361,9.69177,7.089230000000001,19.1025,3.0822700000000003
2.8,14.2319,4.62646,15.7379,7.838439999999999,0.798034,8.6423,13.5376,9.69177,7.09381,19.104,3.08075
2.82,14.2303,4.61883,15.7486,7.838439999999999,0.794982,8.6301,13.5498,9.69177,7.092280000000001,19.0933,3.08075
2.84,14.2349,4.62036,15.7486,7.838439999999999,0.791931,8.63315,13.5498,9.69177,7.09076,19.0781,3.0822700000000003
2.86,14.2426,4.62036,15.7654,7.838439999999999,0.790405,8.61789,13.5635,9.69177,7.08771,19.0674,3.0838
2.88,14.2487,4.6218900000000005,15.7623,7.8369100000000005,0.793456,8.60873,13.5651,9.69177,7.09076,19.0521,3.0822700000000003
2.9,14.2456,4.62341,15.7608,7.83997,0.791931,8.60721,13.5742,9.69177,7.09076,19.0552,3.0822700000000003
2.92,14.2487,4.635619999999999,15.7745,7.84302,0.796508,8.595,13.5773,9.69177,7.089230000000001,19.0414,3.0822700000000003
2.94,14.2471,4.6340900000000005,15.7745,7.838439999999999,0.793456,8.59195,13.5742,9.69177,7.09076,19.0414,3.0822700000000003
2.96,14.2471,4.63715,15.7745,7.838439999999999,0.794982,8.57974,13.5849,9.69177,7.08771,19.0292,3.0822700000000003
2.98,14.2532,4.638669999999999,15.773,7.83997,0.794982,8.57364,13.5895,9.69177,7.092280000000001,19.0201,3.0792200000000003
3.0,14.2593,4.6340900000000005,15.77,7.83997,0.793456,8.56601,13.6017,9.69177,7.092280000000001,19.0186,3.0822700000000003
3.02,14.2578,4.6340900000000005,15.7745,7.829280000000001,0.791931,8.55991,13.5971,9.69177,7.09076,19.0063,3.0822700000000003
3.04,14.2578,4.64935,15.773,7.823180000000001,0.791931,8.55838,13.6124,9.69177,7.09076,18.9972,3.0838
3.06,14.2609,4.6463,15.7745,7.826230000000001,0.791931,8.55533,13.6124,9.69177,7.095339999999999,18.9926,3.0822700000000003
3.08,14.2578,4.64935,15.7761,7.8247100000000005,0.793456,8.54617,13.6185,9.69177,7.09076,18.9819,3.0822700000000003
3.1,14.2563,4.64935,15.7623,7.8308100000000005,0.791931,8.54617,13.6261,9.69177,7.09076,18.9697,3.0822700000000003
3.12,14.2578,4.64783,15.7593,7.826230000000001,0.793456,8.53244,13.6261,9.69177,7.09076,18.9713,3.0822700000000003
3.14,14.2578,4.65088,15.7486,7.826230000000001,0.793456,8.53244,13.6246,9.69177,7.092280000000001,18.9575,3.0822700000000003
3.16,14.2593,4.6463,15.7516,7.8308100000000005,0.793456,8.53091,13.6383,9.69177,7.09076,18.9438,3.08075
3.18,14.2563,4.66003,15.7394,7.8308100000000005,0.793456,8.52481,13.6353,9.69177,7.09381,18.9438,3.0822700000000003
3.2,14.2731,4.66003,15.7272,7.829280000000001,0.793456,8.51871,13.6322,9.69177,7.092280000000001,18.9331,3.08075
3.22,14.2715,4.65698,15.7242,7.8277600000000005,0.790405,8.50497,13.6337,9.69177,7.08771,18.9194,3.0822700000000003
3.24,14.2715,4.65851,15.712,7.8308100000000005,0.793456,8.5065,13.6383,9.69177,7.09076,18.9087,3.08533
3.26,14.2715,4.66309,15.7028,7.8277600000000005,0.793456,8.51108,13.6383,9.69177,7.08771,18.9056,3.08075
3.28,14.2715,4.65851,15.6937,7.8277600000000005,0.794982,8.49887,13.6475,9.69177,7.092280000000001,18.8934,3.0838
3.3,14.267000000000001,4.66003,15.6754,7.829280000000001,0.791931,8.49735,13.6505,9.69177,7.092280000000001,18.8843,3.0822700000000003
3.32,14.2685,4.66003,15.6662,7.826230000000001,0.791931,8.49735,13.6475,9.69177,7.092280000000001,18.8828,3.0838
3.34,14.2715,4.67224,15.654000000000002,7.8277600000000005,0.793456,8.48209,13.649000000000001,9.69177,7.09076,18.869,3.0822700000000003
3.36,14.2731,4.67224,15.6403,7.8308100000000005,0.793456,8.48056,13.652000000000001,9.69177,7.09076,18.8583,3.08075
3.38,14.2731,4.67071,15.6281,7.826230000000001,0.790405,8.48209,13.6459,9.69177,7.09076,18.8477,3.0838
3.4,14.2731,4.67224,15.6189,7.81555,0.794982,8.46835,13.6505,9.69177,7.089230000000001,18.8324,3.0838
3.42,14.27,4.66919,15.6052,7.81555,0.793456,8.46988,13.649000000000001,9.69177,7.092280000000001,18.8232,3.08533
3.44,14.2746,4.68445,15.5777,7.8125,0.794982,8.46988,13.6505,9.69177,7.089230000000001,18.808,3.08075
3.46,14.2715,4.6814,15.5685,7.8125,0.793456,8.46072,13.652000000000001,9.69177,7.089230000000001,18.7942,3.0822700000000003
3.48,14.27,4.68445,15.5533,7.814030000000001,0.793456,8.45767,13.649000000000001,9.69177,7.09076,18.7851,3.08075
3.5,14.2715,4.689030000000001,15.5273,7.81555,0.790405,8.46072,13.649000000000001,9.69177,7.077030000000001,18.7744,3.08075
3.52,14.2609,4.6875,15.5182,7.81555,0.796508,8.46072,13.6536,9.69177,7.077030000000001,18.7637,3.0792200000000003
3.54,14.2548,4.682919999999999,15.5045,7.814030000000001,0.790405,8.44852,13.649000000000001,9.69177,7.07855,18.7485,3.0792200000000003
