time(s),100227,100235,100231,100233,100234,100236,200379,100232,110418,100230
0.0,5.08575,9.92263,1.89362,11.6516,10.9787,0.712585,1.78365,1.22223,10.0525,15.1062
0.02,5.096430000000001,9.89822,1.89514,11.6577,10.9787,0.709533,1.7867,1.22223,10.051,15.0925
0.04,5.10864,9.8738,1.89209,11.6684,10.9741,0.709533,1.7882200000000001,1.2207,10.054,15.0955
0.06,5.11932,9.83871,1.89362,11.6653,10.9772,0.7080069999999999,1.7882200000000001,1.22223,10.0525,15.0909
0.08,5.134580000000001,9.81124,1.89819,11.6653,10.9695,0.7141109999999999,1.7867,1.22375,10.0479,15.0925
0.1,5.15442,9.78683,1.89667,11.6684,10.965,0.711059,1.7867,1.21918,10.051,15.0925
0.12,5.1696800000000005,9.76699,1.89667,11.6699,10.9665,0.712585,1.78365,1.22375,10.0357,15.0909
0.14,5.1818800000000005,9.739519999999999,1.89819,11.6684,10.9665,0.709533,1.7851700000000001,1.21918,10.0403,15.0909
0.16,5.20477,9.70443,1.89514,11.6638,10.968,0.712585,1.78365,1.22375,10.0403,15.094000000000001
0.18,5.21698,9.66628,1.89362,11.6684,10.9665,0.711059,1.7867,1.2207,10.0403,15.094000000000001
0.2,5.24139,9.638819999999999,1.89514,11.6699,10.965,0.711059,1.7821200000000001,1.21918,10.0418,15.097000000000001
0.22,5.2536,9.61898,1.89362,11.6684,10.965,0.7141109999999999,1.78365,1.22528,10.0342,15.0955
0.24,5.27801,9.57778,1.89362,11.6699,10.9558,0.7141109999999999,1.7882200000000001,1.2207,10.0418,15.0925
0.26,5.29175,9.557939999999999,1.89209,11.6684,10.9573,0.712585,1.7882200000000001,1.22223,10.0418,15.0803
0.28,5.31769,9.53353,1.89362,11.6653,10.9558,0.711059,1.7851700000000001,1.22528,10.0372,15.0803
0.3,5.33905,9.510639999999999,1.89362,11.6669,10.9558,0.711059,1.7882200000000001,1.21918,10.0403,15.0772
0.32,5.35431,9.48165,1.89514,11.6684,10.9573,0.712585,1.7867,1.22375,10.0403,15.0787
0.34,5.3772,9.457239999999999,1.89362,11.6653,10.9558,0.712585,1.78365,1.21918,10.0372,15.0818
0.36,5.39093,9.43435,1.89514,11.6714,10.9558,0.711059,1.7851700000000001,1.22223,10.0388,15.0864
0.38,5.413819999999999,9.406880000000001,1.89362,11.6684,10.9543,0.711059,1.7851700000000001,1.21918,10.0388,15.0848
0.4,5.43823,9.3901,1.89667,11.6684,10.9512,0.7080069999999999,1.78365,1.22375,10.0372,15.0833
0.42,5.455019999999999,9.371789999999999,1.89514,11.6669,10.9543,0.709533,1.78975,1.22223,10.0403,15.0787
0.44,5.476380000000001,9.35042,1.89362,11.6684,10.9421,0.711059,1.7851700000000001,1.2207,10.0388,15.0848
0.46,5.50079,9.32448,1.89514,11.6653,10.9406,0.711059,1.78975,1.22375,10.0418,15.0803
0.48,5.5252099999999995,9.29702,1.89667,11.6699,10.939,0.711059,1.7851700000000001,1.22223,10.0388,15.0803
0.5,5.54657,9.27413,1.89362,11.6684,10.9421,0.712585,1.7851700000000001,1.22375,10.0388,15.0787
0.52,5.5618300000000005,9.26345,1.89514,11.6699,10.939,0.709533,1.78365,1.22681,10.0403,15.0803
0.54,5.58624,9.23598,1.89514,11.6791,10.9436,0.712585,1.7851700000000001,1.2207,10.0403,15.0803
0.56,5.59692,9.22683,1.89209,11.6791,10.9421,0.709533,1.7867,1.22223,10.0372,15.0833
0.58,5.62439,9.20089,1.89362,11.6806,10.9375,0.711059,1.78365,1.21765,10.0372,15.0848
0.6,5.64728,9.19021,1.89514,11.6837,10.9421,0.709533,1.7851700000000001,1.22375,10.0357,15.0803
0.62,5.65796,9.16274,1.89362,11.6821,10.9299,0.709533,1.78365,1.22375,10.0372,15.0833
0.64,5.6839,9.14748,1.89362,11.6791,10.9299,0.709533,1.7882200000000001,1.22375,10.0388,15.0681
0.66,5.69458,9.14138,1.89362,11.6776,10.9314,0.711059,1.7851700000000001,1.2207,10.0403,15.0696
0.68,5.72205,9.12765,1.89362,11.6791,10.9329,0.711059,1.7882200000000001,1.2207,10.0388,15.0726
0.7,5.72967,9.10171,1.89514,11.6791,10.9314,0.709533,1.7851700000000001,1.22223,10.0372,15.0681
0.72,5.74646,9.0895,1.89209,11.6898,10.9283,0.711059,1.7867,1.2207,10.0418,15.0711
0.74,5.7724,9.07577,1.89514,11.6928,10.9314,0.712585,1.7821200000000001,1.22375,10.0418,15.0681
0.76,5.78155,9.06661,1.89667,11.6928,10.9283,0.7080069999999999,1.7867,1.21918,10.0372,15.0604
0.78,5.8044400000000005,9.05288,1.89667,11.6943,10.9314,0.712585,1.7882200000000001,1.2207,10.0403,15.0589
0.8,5.8197,9.04067,1.89514,11.6928,10.9314,0.7080069999999999,1.7882200000000001,1.22375,10.0418,15.0604
0.82,5.83343,9.03304,1.89209,11.6913,10.9314,0.711059,1.78365,1.2207,10.0403,15.0558
0.84,5.850219999999999,9.00405,1.89667,11.702,10.9192,0.712585,1.7867,1.22528,10.0418,15.0543
0.86,5.867000000000001,8.99337,1.89209,11.7004,10.9161,0.711059,1.78365,1.22223,10.0403,15.0558
0.88,5.88074,8.97964,1.89362,11.7035,10.9177,0.709533,1.7851700000000001,1.22223,10.0372,15.0558
0.9,5.89294,8.96895,1.89667,11.7004,10.9177,0.709533,1.7851700000000001,1.22223,10.0433,15.0543
0.92,5.9021,8.95675,1.89667,11.7142,10.9177,0.711059,1.78365,1.2207,10.0403,15.0574
0.94,5.912780000000001,8.939960000000001,1.89819,11.7157,10.9177,0.709533,1.7867,1.21918,10.0388,15.0589
0.96,5.9265099999999995,8.92013,1.89209,11.7157,10.9192,0.709533,1.7867,1.22223,10.0418,15.0528
0.98,5.94025,8.90945,1.89819,11.7279,10.91,0.715637,1.7867,1.2207,10.0403,15.0558
1.0,5.9539800000000005,8.89419,1.89362,11.731,10.9039,0.711059,1.7851700000000001,1.21918,10.0388,15.0589
1.02,5.96161,8.88198,1.89209,11.7279,10.9055,0.7141109999999999,1.7851700000000001,1.2207,10.0418,15.0711
1.04,5.96466,8.872819999999999,1.8905599999999998,11.7386,10.9085,0.709533,1.7882200000000001,1.2207,10.0388,15.0696
1.06,5.97382,8.86825,1.89362,11.7386,10.9024,0.709533,1.7851700000000001,1.22223,10.0418,15.0696
1.08,5.99213,8.85909,1.89514,11.7523,10.91,0.711059,1.78365,1.22223,10.0403,15.0665
1.1,6.01349,8.845360000000001,1.89362,11.7645,10.9055,0.712585,1.7851700000000001,1.2207,10.0372,15.0681
1.12,6.02264,8.83468,1.89362,11.7645,10.9024,0.7141109999999999,1.7867,1.2207,10.0418,15.0665
1.14,6.03943,8.82094,1.89362,11.7752,10.9055,0.709533,1.78365,1.22375,10.0403,15.0696
1.16,6.04706,8.82247,1.89362,11.7874,10.9055,0.711059,1.7851700000000001,1.21918,10.0403,15.0803
1.18,6.06384,8.807210000000001,1.89362,11.8011,10.8932,0.711059,1.7867,1.22375,10.0403,15.0818
1.2,6.07605,8.79653,1.89667,11.8134,10.8932,0.709533,1.7882200000000001,1.22223,10.0388,15.0833
1.22,6.10046,8.795,1.89514,11.8408,10.8917,0.7080069999999999,1.78365,1.21002,10.0403,15.0833
1.24,6.10046,8.7828,1.89667,11.85,10.8932,0.711059,1.7882200000000001,1.2207,10.0388,15.0925
1.26,6.11572,8.77517,1.89667,11.8698,10.8917,0.709533,1.78365,1.21918,10.0281,15.0955
1.28,6.12488,8.773639999999999,1.89209,11.8881,10.8917,0.711059,1.7821200000000001,1.22223,10.0281,15.0925
1.3,6.13403,8.759910000000001,1.89209,11.9125,10.8917,0.711059,1.78365,1.21002,10.0235,15.1047
1.32,6.1477699999999995,8.762960000000001,1.89667,11.9354,10.8948,0.7080069999999999,1.7882200000000001,1.2085,10.0265,15.1062
1.34,6.14624,8.74923,1.89514,11.9629,10.8902,0.7080069999999999,1.7867,1.20697,10.0281,15.1047
1.36,6.1630199999999995,8.7477,1.89209,11.969000000000001,10.8932,0.709533,1.7851700000000001,1.21002,10.0281,15.1199
1.38,6.17371,8.74007,1.89667,11.998,10.8795,0.709533,1.78365,1.22375,10.0235,15.1138
1.4,6.17371,8.723289999999999,1.89667,12.0193,10.8826,0.711059,1.7851700000000001,1.22375,10.0235,15.1184
1.42,6.18591,8.723289999999999,1.89209,12.0468,10.880999999999998,0.711059,1.7867,1.2207,10.0281,15.1184
1.44,6.1874400000000005,8.71108,1.89514,12.0728,10.8826,0.711059,1.7851700000000001,1.22223,10.0281,15.1306
1.46,6.1965900000000005,8.70956,1.89819,12.0941,10.8826,0.709533,1.78365,1.21918,10.0281,15.1306
1.48,6.19965,8.69887,1.89209,12.117,10.880999999999998,0.711059,1.7867,1.21918,10.0281,15.1291
1.5,6.21033,8.69735,1.89362,12.145999999999999,10.8795,0.709533,1.7867,1.20697,10.0296,15.1413
1.52,6.21033,8.688189999999999,1.89514,12.1735,10.8841,0.712585,1.78365,1.21155,10.0281,15.1459
1.54,6.22253,8.675989999999999,1.89362,12.1918,10.880999999999998,0.711059,1.78365,1.2085,10.0281,15.1398
1.56,6.21948,8.67446,1.89514,12.2162,10.8826,0.712585,1.7851700000000001,1.21155,10.0265,15.1581
1.58,6.22101,8.663780000000001,1.89514,12.2406,10.8704,0.720214,1.7867,1.20697,10.0281,15.152000000000001
1.6,6.22253,8.660730000000001,1.89209,12.2665,10.8704,0.723266,1.7867,1.2085,10.0296,15.1672
1.62,6.23169,8.6531,1.89514,12.290999999999999,10.8673,0.7217399999999999,1.7867,1.21155,10.0265,15.1672
1.64,6.23321,8.65157,1.89667,12.3138,10.8704,0.724792,1.7867,1.21307,10.025,15.1794
1.66,6.23169,8.646989999999999,1.89667,12.3276,10.8734,0.724792,1.7851700000000001,1.2085,10.0265,15.181
1.68,6.23474,8.637839999999999,1.89514,12.3535,10.8704,0.726318,1.78365,1.20697,10.0281,15.1916
1.7,6.23474,8.634789999999999,1.89514,12.3734,10.8704,0.724792,1.7851700000000001,1.21155,10.0265,15.1916
1.72,6.236269999999999,8.628680000000001,1.89362,12.3917,10.8704,0.723266,1.78365,1.21155,10.025,15.2069
1.74,6.23474,8.625630000000001,1.89819,12.4146,10.8688,0.7217399999999999,1.7851700000000001,1.20697,10.0281,15.2039
1.76,6.24695,8.62411,1.89514,12.439,10.8734,0.724792,1.7882200000000001,1.21002,10.0265,15.2161
1.78,6.245419999999999,8.6119,1.89514,12.4496,10.8673,0.7278439999999999,1.7867,1.2085,10.025,15.2191
1.8,6.245419999999999,8.618,1.89514,12.4771,10.8566,0.724792,1.78365,1.21155,10.0265,15.2237
1.82,6.2439,8.602739999999999,1.89514,12.4985,10.8551,0.724792,1.7851700000000001,1.21002,10.0281,15.2267
1.84,6.24695,8.60427,1.89362,12.5259,10.8566,0.723266,1.7805900000000001,1.21002,10.0265,15.2283
1.86,6.2439,8.590539999999999,1.89667,12.5351,10.8582,0.7217399999999999,1.7867,1.21155,10.0281,15.2405
1.88,6.245419999999999,8.58901,1.89514,12.5595,10.8551,0.726318,1.78365,1.2085,10.0265,15.2557
1.9,6.245419999999999,8.590539999999999,1.89362,12.5839,10.8612,0.723266,1.78365,1.20697,10.0281,15.2527
1.92,6.24084,8.5768,1.89362,12.6114,10.8566,0.723266,1.7867,1.2085,10.025,15.2664
1.94,6.248469999999999,8.581380000000001,1.89514,12.6236,10.8566,0.723266,1.78365,1.21155,10.0281,15.2634
1.96,6.25915,8.5768,1.89514,12.6465,10.8597,0.723266,1.7821200000000001,1.21155,10.0281,15.2802
1.98,6.257630000000001,8.57986,1.89362,12.6755,10.8536,0.723266,1.7851700000000001,1.21002,10.0281,15.274000000000001
2.0,6.25915,8.578330000000001,1.89514,12.6953,10.8582,0.720214,1.7867,1.20697,10.0265,15.2878
2.02,6.257630000000001,8.572230000000001,1.89514,12.7182,10.8429,0.7217399999999999,1.78365,1.21002,10.0281,15.2863
2.04,6.257630000000001,8.56765,1.89667,12.735,10.8444,0.720214,1.78365,1.20697,10.0265,15.2878
2.06,6.25915,8.56612,1.89362,12.7563,10.8459,0.7217399999999999,1.7867,1.2085,10.0311,15.2954
2.08,6.25915,8.56307,1.89514,12.7808,10.8459,0.7217399999999999,1.78365,1.2085,10.0281,15.3015
2.1,6.254580000000001,8.56765,1.89514,12.8067,10.8429,0.723266,1.7867,1.21002,10.0265,15.3
2.12,6.257630000000001,8.56917,1.89514,12.8357,10.8444,0.720214,1.7867,1.21002,10.0311,15.3015
2.14,6.25915,8.5646,1.89362,12.8586,10.8459,0.723266,1.7851700000000001,1.2146,10.0281,15.3
2.16,6.2561,8.552389999999999,1.89514,12.8784,10.8444,0.723266,1.7867,1.21155,10.0281,15.3122
2.18,6.257630000000001,8.55392,1.89362,12.9013,10.8292,0.723266,1.7867,1.20697,10.0265,15.3122
2.2,6.25915,8.55392,1.89362,12.9242,10.8337,0.720214,1.7821200000000001,1.2085,10.0296,15.3137
2.22,6.26221,8.552389999999999,1.89514,12.9517,10.8307,0.7217399999999999,1.7805900000000001,1.21307,10.025,15.3137
2.24,6.2561,8.55392,1.89514,12.972999999999999,10.8337,0.723266,1.78365,1.21155,10.0204,15.3152
2.26,6.26221,8.555439999999999,1.89362,12.999,10.8307,0.7217399999999999,1.7867,1.21002,10.0159,15.3137
2.28,6.245419999999999,8.54323,1.89362,13.0096,10.8337,0.724792,1.7851700000000001,1.21307,10.0174,15.3122
2.3,6.24695,8.54171,1.89667,13.0341,10.8322,0.726318,1.7989,1.21002,10.0174,15.3137
2.32,6.242369999999999,8.54323,1.89514,13.0585,10.8292,0.724792,1.78365,1.2085,10.0143,15.3122
2.34,6.2439,8.54171,1.8905599999999998,13.0844,10.8307,0.723266,1.7851700000000001,1.20697,10.0159,15.3122
2.36,6.245419999999999,8.54018,1.8905599999999998,13.1104,10.8307,0.718688,1.7867,1.20697,10.0159,15.3152
2.38,6.245419999999999,8.54171,1.89514,13.1378,10.8353,0.7217399999999999,1.7851700000000001,1.21155,10.0143,15.3137
2.4,6.236269999999999,8.54018,1.89514,13.1714,10.8261,0.723266,1.7882200000000001,1.21002,10.0189,15.3137
2.42,6.23169,8.53103,1.89667,13.1958,10.8185,0.726318,1.78365,1.21155,10.0128,15.3107
2.44,6.23321,8.53255,1.89362,13.2294,10.8215,0.720214,1.7867,1.21002,10.0159,15.3122
2.46,6.23321,8.53103,1.89362,13.2599,10.8185,0.724792,1.7867,1.21155,10.0143,15.3122
2.48,6.236269999999999,8.53255,1.89819,13.295,10.82,0.724792,1.7851700000000001,1.20697,10.0143,15.3137
2.5,6.23321,8.53103,1.89362,13.3209,10.8246,0.723266,1.7851700000000001,1.21155,10.0174,15.3091
2.52,6.21948,8.51577,1.89514,13.3514,10.82,0.726318,1.7867,1.2085,10.0128,15.3122
2.54,6.22253,8.51729,1.89209,13.3804,10.8185,0.726318,1.7882200000000001,1.21002,10.0174,15.3137
2.56,6.21948,8.51577,1.89667,13.4003,10.8215,0.724792,1.7851700000000001,1.21002,10.0143,15.3137
2.58,6.22101,8.51424,1.89514,13.4232,10.8231,0.724792,1.7851700000000001,1.20697,10.0143,15.3122
2.6,6.22101,8.50509,1.89514,13.4415,10.8215,0.720214,1.7989,1.2085,10.0159,15.3152
2.62,6.207269999999999,8.50204,1.89667,13.4659,10.8078,0.723266,1.79738,1.2085,10.0159,15.3137
2.64,6.2088,8.50509,1.89514,13.4735,10.8063,0.7217399999999999,1.7989,1.20697,10.0174,15.3107
2.66,6.20575,8.48983,1.89514,13.501,10.8078,0.720214,1.79738,1.21002,10.0143,15.3122
2.68,6.2088,8.49288,1.89514,13.5101,10.8078,0.7217399999999999,1.7989,1.2085,10.0143,15.3107
2.7,6.21033,8.49288,1.89362,13.5269,10.8093,0.723266,1.79738,1.2085,10.0143,15.3
2.72,6.2088,8.48067,1.89667,13.5498,10.8063,0.726318,1.79433,1.21155,10.0143,15.3
2.74,6.21033,8.4822,1.89209,13.562000000000001,10.8109,0.723266,1.7989,1.21155,10.0159,15.3015
2.76,6.19965,8.48373,1.89362,13.5742,10.8093,0.723266,1.7867,1.21002,10.0159,15.3015
2.78,6.1965900000000005,8.47152,1.89362,13.5895,10.8093,0.718688,1.78365,1.21307,10.0159,15.2985
2.8,6.201169999999999,8.46847,1.89209,13.5986,10.7925,0.7217399999999999,1.7867,1.2085,10.0189,15.3015
2.82,6.198119999999999,8.46999,1.89667,13.6124,10.7986,0.7217399999999999,1.7851700000000001,1.20697,10.0159,15.2985
2.84,6.1965900000000005,8.45626,1.89209,13.6246,10.7971,0.724792,1.7851700000000001,1.2085,10.0159,15.3
2.86,6.195069999999999,8.45473,1.89514,13.6383,10.7971,0.724792,1.78365,1.2085,10.0159,15.3015
2.88,6.198119999999999,8.45779,1.89362,13.649000000000001,10.7941,0.720214,1.78365,1.2085,10.0128,15.302999999999999
2.9,6.1843900000000005,8.46084,1.89362,13.6734,10.7956,0.723266,1.7851700000000001,1.21307,10.0174,15.3
2.92,6.18591,8.43947,1.89667,13.6856,10.7956,0.7217399999999999,1.7867,1.21155,10.0128,15.3015
2.94,6.18591,8.44558,1.89362,13.6963,10.7941,0.720214,1.7851700000000001,1.21155,10.0143,15.2878
2.96,6.18591,8.44558,1.89514,13.7222,10.7956,0.723266,1.78365,1.21002,10.0159,15.2908
2.98,6.1843900000000005,8.44405,1.89514,13.7329,10.7941,0.723266,1.7851700000000001,1.21002,10.0143,15.2908
3.0,6.17218,8.43337,1.89209,13.7482,10.7956,0.723266,1.7851700000000001,1.21155,10.0143,15.2847
3.02,6.16913,8.43337,1.89362,13.767999999999999,10.7819,0.723266,1.7851700000000001,1.20544,10.0128,15.2863
3.04,6.17218,8.43185,1.89362,13.7863,10.7819,0.7217399999999999,1.7882200000000001,1.2085,10.0174,15.2893
3.06,6.17371,8.43185,1.89209,13.7924,10.7819,0.726318,1.78365,1.21155,10.0174,15.2771
3.08,6.17523,8.41811,1.89362,13.8031,10.7834,0.7217399999999999,1.7867,1.21002,10.0128,15.2786
3.1,6.17065,8.41659,1.89362,13.8168,10.7834,0.723266,1.7867,1.21002,10.0128,15.2802
3.12,6.17218,8.41964,1.89667,13.8458,10.7819,0.724792,1.78365,1.2085,10.0174,15.2664
3.14,6.1599699999999995,8.41048,1.89362,13.857999999999999,10.7849,0.724792,1.78365,1.21002,10.0037,15.2634
3.16,6.1569199999999995,8.41048,1.89514,13.8733,10.7849,0.720214,1.7851700000000001,1.21002,10.0021,15.2542
3.18,6.1615,8.40438,1.89819,13.8947,10.7819,0.7217399999999999,1.7867,1.21155,10.0021,15.2512
3.2,6.1615,8.40285,1.89362,13.915999999999999,10.7819,0.7217399999999999,1.7882200000000001,1.2085,10.0037,15.2512
3.22,6.1615,8.39675,1.89819,13.9282,10.7697,0.720214,1.7882200000000001,1.21307,10.0006,15.2512
3.24,6.1615,8.39828,1.89514,13.9542,10.7727,0.723266,1.7821200000000001,1.21002,10.0021,15.239
3.26,6.152340000000001,8.3937,1.89362,13.9771,10.7727,0.723266,1.7867,1.21002,10.0021,15.2374
3.28,6.14624,8.38454,1.89362,13.9893,10.7681,0.726318,1.7867,1.21002,10.0021,15.2405
3.3,6.1477699999999995,8.38302,1.89362,14.0137,10.7697,0.720214,1.7821200000000001,1.20697,10.0021,15.239
3.32,6.149290000000001,8.36776,1.89667,14.0274,10.7727,0.724792,1.7867,1.21155,10.0037,15.242
3.34,6.149290000000001,8.37386,1.89362,14.0549,10.7712,0.724792,1.7851700000000001,1.21155,10.0021,15.2313
3.36,6.149290000000001,8.37234,1.89362,14.0656,10.7697,0.724792,1.7867,1.21002,10.0052,15.2283
3.38,6.13708,8.36776,1.8814099999999998,14.0793,10.7712,0.723266,1.7882200000000001,1.2085,10.0037,15.2298
3.4,6.13861,8.35708,1.87988,14.0884,10.7712,0.7217399999999999,1.7851700000000001,1.21002,10.0037,15.2267
3.42,6.13861,8.35708,1.89209,14.1022,10.7712,0.726318,1.7851700000000001,1.21002,10.0021,15.2298
3.44,6.13861,8.3586,1.8783599999999998,14.1098,10.7727,0.7217399999999999,1.7851700000000001,1.21002,10.0037,15.2283
3.46,6.13708,8.34487,1.8814099999999998,14.1113,10.759,0.724792,1.78365,1.21155,10.0052,15.2115
3.48,6.12183,8.3464,1.87988,14.1266,10.759,0.723266,1.7867,1.20697,10.0021,15.2145
3.5,6.12488,8.33572,1.8844599999999998,14.1388,10.7574,0.723266,1.7851700000000001,1.2085,10.0037,15.2176
3.52,6.12488,8.33114,1.8814099999999998,14.1495,10.7605,0.724792,1.78365,1.21155,10.0037,15.213
3.54,6.12335,8.32503,1.89667,14.151,10.7605,0.723266,1.7821200000000001,1.21002,9.999080000000001,15.2191
3.56,6.12183,8.32046,1.8814099999999998,14.1647,10.7559,0.720214,1.7867,1.21307,10.0037,15.2145
3.58,6.10962,8.32046,1.87988,14.1632,10.7559,0.724792,1.78365,1.2085,10.0037,15.2191
3.6,6.11267,8.30825,1.88293,14.1693,10.7574,0.7217399999999999,1.7867,1.2085,10.0037,15.2145
3.62,6.11114,8.3113,1.8814099999999998,14.1846,10.759,0.718688,1.78365,1.21002,10.0021,15.2176
3.64,6.11114,8.29757,1.88293,14.1861,10.7605,0.7217399999999999,1.7867,1.21155,9.999080000000001,15.2054
3.66,6.1142,8.29452,1.8844599999999998,14.1876,10.7498,0.7217399999999999,1.7867,1.21002,10.0021,15.2039
3.68,6.09894,8.29452,1.88293,14.1983,10.7498,0.7217399999999999,1.7851700000000001,1.21002,10.0037,15.2039
3.7,6.09894,8.28384,1.87988,14.2014,10.7468,0.718688,1.78365,1.21002,10.0037,15.2039
3.72,6.09741,8.28689,1.8814099999999998,14.1983,10.7483,0.723266,1.7851700000000001,1.2085,10.0037,15.2039
3.74,6.10199,8.28231,1.88293,14.1998,10.7452,0.726318,1.7867,1.2085,10.0021,15.2039
3.76,6.08826,8.27468,1.87988,14.1998,10.7483,0.724792,1.7851700000000001,1.21002,10.0021,15.2054
3.78,6.08826,8.27163,1.88293,14.1983,10.7468,0.723266,1.7851700000000001,1.21155,10.0052,15.2069
3.8,6.0852,8.27315,1.8814099999999998,14.1953,10.7468,0.724792,1.7867,1.21155,10.0021,15.1932
3.82,6.07758,8.25942,1.8814099999999998,14.1983,10.7468,0.720214,1.78365,1.21155,10.0021,15.1901
3.84,6.07758,8.26095,1.8905599999999998,14.1846,10.7361,0.723266,1.7882200000000001,1.2085,10.0006,15.1886
3.86,6.07605,8.25027,1.8844599999999998,14.1846,10.7315,0.7217399999999999,1.7851700000000001,1.21002,10.0006,15.1886
3.88,6.07605,8.24569,1.8814099999999998,14.1846,10.732999999999999,0.724792,1.7851700000000001,1.21307,10.0021,15.1916
3.9,6.06689,8.24416,1.8814099999999998,14.1891,10.7361,0.720214,1.7821200000000001,1.21307,10.0037,15.1901
3.92,6.06537,8.25179,1.87988,14.1754,10.7346,0.723266,1.7851700000000001,1.20697,10.0037,15.1794
3.94,6.06232,8.23958,1.8814099999999998,14.1769,10.7315,0.723266,1.7851700000000001,1.2085,10.0021,15.1794
3.96,6.06232,8.23958,1.8814099999999998,14.1586,10.7376,0.723266,1.78365,1.20544,10.0021,15.1794
3.98,6.06537,8.23348,1.87988,14.1632,10.7346,0.724792,1.7867,1.21155,10.0037,15.181
4.0,6.06384,8.23806,1.88293,14.1479,10.7346,0.720214,1.7851700000000001,1.21155,10.0021,15.181
4.02,6.06232,8.22585,1.8814099999999998,14.151,10.732999999999999,0.724792,1.7867,1.21155,10.0021,15.1627
