time(s),100175,100171,100173,100174,100176,100172,100170,100169,110412,200372
0.0,12.294,8.90655,7.434080000000001,6.95648,2.02942,5.58624,10.3546,19.9936,6.2088,3.35693
0.02,12.2925,8.9035,7.4356100000000005,6.958010000000001,2.03247,5.58777,10.3607,19.9722,6.20728,3.35388
0.04,12.3047,8.89893,7.434080000000001,6.9458,2.03247,5.59082,10.3577,19.9432,6.21033,3.35236
0.06,12.3169,8.90198,7.4356100000000005,6.93054,2.02942,5.57709,10.3546,19.9203,6.21033,3.35236
0.08,12.3276,8.9035,7.4356100000000005,6.9320699999999995,2.03247,5.57709,10.3424,19.899,6.21033,3.35083
0.1,12.3444,8.8913,7.437130000000001,6.92139,2.02942,5.57861,10.3439,19.873,6.20728,3.35388
0.12,12.352,8.88824,7.4356100000000005,6.91833,2.02942,5.57861,10.347000000000001,19.8471,6.21185,3.35236
0.14,12.3627,8.89282,7.434080000000001,6.90765,2.03094,5.58166,10.3424,19.8212,6.21033,3.35388
0.16,12.3764,8.8913,7.434080000000001,6.89697,2.0340000000000003,5.57556,10.347000000000001,19.7983,6.2088,3.35236
0.18,12.3932,8.88977,7.4325600000000005,6.89697,2.03247,5.57709,10.3317,19.7784,6.21033,3.35236
0.2,12.4161,8.89282,7.4356100000000005,6.88324,2.03247,5.57709,10.3302,19.750999999999998,6.21185,3.35693
0.22,12.4252,8.8913,7.434080000000001,6.88477,2.02942,5.57709,10.3348,19.7281,6.21185,3.35388
0.24,12.4405,8.89282,7.4386600000000005,6.869510000000001,2.0340000000000003,5.57556,10.3333,19.6991,6.20728,3.35388
0.26,12.4649,8.87756,7.4356100000000005,6.869510000000001,2.03094,5.57404,10.3302,19.6777,6.21033,3.36151
0.28,12.4741,8.87604,7.4356100000000005,6.8573,2.02942,5.57556,10.3302,19.6533,6.2088,3.3493
0.3,12.4985,8.87604,7.437130000000001,6.8634,2.03247,5.57556,10.3226,19.6396,6.21033,3.3493
0.32,12.5229,8.87299,7.434080000000001,6.848139999999999,2.02789,5.5648800000000005,10.318,19.6075,6.21185,3.35236
0.34,12.5412,8.88061,7.4386600000000005,6.84662,2.03094,5.5648800000000005,10.321,19.5786,6.20728,3.35541
0.36,12.5641,8.87604,7.431030000000001,6.834410000000001,2.02942,5.5648800000000005,10.321,19.5526,6.21185,3.35541
0.38,12.587,8.87604,7.434080000000001,6.835939999999999,2.02942,5.56335,10.318,19.5297,6.21033,3.35388
0.4,12.6007,8.86383,7.437130000000001,6.825260000000001,2.02942,5.566409999999999,10.3226,19.4992,6.2088,3.35236
0.42,12.6251,8.86383,7.437130000000001,6.8161,2.03247,5.56335,10.321,19.4809,6.2088,3.35388
0.44,12.6465,8.86688,7.437130000000001,6.80695,2.03094,5.5618300000000005,10.318,19.4565,6.21033,3.35388
0.46,12.6602,8.86688,7.440180000000001,6.81,2.03247,5.56335,10.321,19.4275,6.21185,3.35693
0.48,12.6801,8.86383,7.440180000000001,6.79932,2.03247,5.56335,10.3195,19.4015,6.21033,3.35236
0.5,12.6984,8.8562,7.440180000000001,6.79932,2.03094,5.56335,10.3195,19.3771,6.2088,3.3493
0.52,12.7197,8.85162,7.4325600000000005,6.78711,2.03247,5.5648800000000005,10.3195,19.3542,6.21033,3.35541
0.54,12.7304,8.85467,7.434080000000001,6.78253,2.0340000000000003,5.55267,10.3226,19.3222,6.2088,3.3493
0.56,12.7533,8.84094,7.437130000000001,6.7749,2.03094,5.54962,10.3104,19.2978,6.21033,3.35388
0.58,12.7701,8.84247,7.434080000000001,6.7749,2.03705,5.55572,10.3058,19.2856,6.21033,3.35388
0.6,12.793,8.84247,7.437130000000001,6.762689999999999,2.03247,5.55115,10.3073,19.2612,6.21338,3.36456
0.62,12.8082,8.84094,7.4356100000000005,6.76117,2.0340000000000003,5.5542,10.3073,19.2368,6.2088,3.35236
0.64,12.8326,8.827210000000001,7.42035,6.76117,2.03247,5.55572,10.3088,19.2154,6.2088,3.35236
0.66,12.8433,8.83026,7.424930000000001,6.747439999999999,2.03094,5.55267,10.3088,19.1971,6.21033,3.35388
0.68,12.8677,8.82873,7.424930000000001,6.74896,2.03094,5.55115,10.3073,19.1772,6.2088,3.35388
0.7,12.8784,8.83026,7.421869999999999,6.74591,2.02789,5.55115,10.3073,19.1528,6.21033,3.3493
0.72,12.8876,8.81653,7.421869999999999,6.7352300000000005,2.0340000000000003,5.55267,10.3088,19.1299,6.2088,3.35693
0.74,12.9028,8.81653,7.42645,6.7337,2.03247,5.5374099999999995,10.3088,19.1116,6.21185,3.35083
0.76,12.915,8.821110000000001,7.421869999999999,6.73675,2.02942,5.54047,10.3104,19.0887,6.21033,3.35541
0.78,12.9257,8.81958,7.421869999999999,6.72455,2.02942,5.53894,10.3088,19.0643,6.2088,3.35236
0.8,12.9425,8.81653,7.42645,6.73065,2.03094,5.54352,10.3073,19.0414,6.21033,3.35388
0.82,12.9547,8.81653,7.424930000000001,6.72607,2.03094,5.54047,10.2982,19.0308,6.21185,3.35541
0.84,12.9623,8.815,7.421869999999999,6.72607,2.03094,5.5374099999999995,10.2966,19.0048,6.21033,3.35388
0.86,12.9761,8.80432,7.424930000000001,6.71692,2.03552,5.54199,10.2936,18.9835,6.20728,3.35541
0.88,12.9852,8.80585,7.42035,6.712339999999999,2.03247,5.5374099999999995,10.2951,18.9713,6.21033,3.35388
0.9,12.9974,8.80585,7.42645,6.69556,2.03247,5.5374099999999995,10.2951,18.9438,6.21185,3.35236
0.92,13.0005,8.80279,7.4234,6.700130000000001,2.03094,5.53894,10.2966,18.9194,6.21033,3.35541
0.94,13.0112,8.80432,7.421869999999999,6.700130000000001,2.0340000000000003,5.54047,10.2966,18.9072,6.20728,3.35541
0.96,13.0249,8.80585,7.418819999999999,6.70166,2.02942,5.54047,10.2951,18.8843,6.20575,3.35236
0.98,13.0264,8.80585,7.4234,6.690980000000001,2.03247,5.529780000000001,10.2814,18.8583,6.21185,3.35693
1.0,13.0356,8.79364,7.421869999999999,6.68487,2.03247,5.5252099999999995,10.2814,18.8492,6.21033,3.35236
1.02,13.0356,8.792110000000001,7.424930000000001,6.687930000000001,2.03247,5.5282599999999995,10.2814,18.8217,6.21185,3.35388
1.04,13.0524,8.79364,7.421869999999999,6.687930000000001,2.03247,5.5252099999999995,10.2814,18.8065,6.21033,3.35236
1.06,13.0508,8.792110000000001,7.409669999999999,6.68945,2.03552,5.529780000000001,10.2829,18.7973,6.20728,3.35693
1.08,13.0615,8.79364,7.4111899999999995,6.68487,2.02942,5.523680000000001,10.2814,18.7714,6.21033,3.35236
1.1,13.0569,8.79364,7.412719999999999,6.687930000000001,2.02942,5.5282599999999995,10.2814,18.7592,6.2088,3.35083
1.12,13.06,8.792110000000001,7.412719999999999,6.703189999999999,2.02942,5.5282599999999995,10.2844,18.7485,6.21033,3.3493
1.14,13.0753,8.782960000000001,7.4111899999999995,6.700130000000001,2.03247,5.5282599999999995,10.2844,18.7241,6.21033,3.35541
1.16,13.0753,8.779910000000001,7.41425,6.71387,2.03247,5.5252099999999995,10.2921,18.7149,6.20728,3.35388
1.18,13.0722,8.78143,7.4111899999999995,6.71081,2.02789,5.5282599999999995,10.2951,18.7027,6.20575,3.35236
1.2,13.0753,8.779910000000001,7.4111899999999995,6.72302,2.0340000000000003,5.529780000000001,10.2951,18.6874,6.20728,3.35541
1.22,13.089,8.78448,7.4111899999999995,6.7276,2.03094,5.529780000000001,10.2966,18.6691,6.21033,3.35388
1.24,13.0875,8.779910000000001,7.4111899999999995,6.7352300000000005,2.03094,5.5252099999999995,10.2982,18.6478,6.21185,3.35236
1.26,13.0859,8.77838,7.4111899999999995,6.74896,2.02942,5.5252099999999995,10.3088,18.6386,6.21033,3.35083
1.28,13.0844,8.76923,7.4081399999999995,6.74896,2.03094,5.5252099999999995,10.3073,18.6264,6.2088,3.35236
1.3,13.0859,8.7677,7.412719999999999,6.76117,2.03094,5.5282599999999995,10.3073,18.6142,6.21033,3.3493
1.32,13.0997,8.766169999999999,7.397460000000001,6.77338,2.03247,5.5252099999999995,10.3088,18.6005,6.21033,3.35083
1.34,13.1027,8.76923,7.400510000000001,6.78558,2.03094,5.523680000000001,10.3165,18.576,6.2088,3.35236
1.36,13.1012,8.76923,7.3989899999999995,6.78253,2.02942,5.54047,10.3256,18.5745,6.20728,3.35083
1.38,13.0981,8.757019999999999,7.3989899999999995,6.797789999999999,2.03247,5.54047,10.318,18.5654,6.20728,3.35541
1.4,13.0997,8.757019999999999,7.3989899999999995,6.80695,2.03247,5.53589,10.3317,18.5547,6.21033,3.35388
1.42,13.0981,8.75549,7.3989899999999995,6.82373,2.0340000000000003,5.5542,10.3302,18.5379,6.21033,3.35388
1.44,13.0981,8.757019999999999,7.400510000000001,6.82983,2.02789,5.5542,10.3439,18.5272,6.21185,3.35083
1.46,13.0981,8.75549,7.397460000000001,6.842039999999999,2.03247,5.5648800000000005,10.3455,18.5272,6.21033,3.35388
1.48,13.0981,8.74329,7.400510000000001,6.86035,2.02942,5.57404,10.3561,18.5165,6.21033,3.35236
1.5,13.0997,8.74329,7.3989899999999995,6.87103,2.02637,5.58472,10.3592,18.5013,6.21033,3.35388
1.52,13.0981,8.741760000000001,7.3989899999999995,6.88324,2.02942,5.59082,10.3683,18.4937,6.21033,3.35541
1.54,13.0859,8.73718,7.3989899999999995,6.89545,2.02942,5.61523,10.3836,18.4952,6.21033,3.35236
1.56,13.0875,8.741760000000001,7.388310000000001,6.90765,2.03094,5.62439,10.3821,18.4799,6.2088,3.35236
1.58,13.0875,8.74329,7.38678,6.92139,2.02942,5.63812,10.3958,18.4677,6.2088,3.35388
1.6,13.0859,8.7326,7.38373,6.93359,2.0340000000000003,5.65185,10.4065,18.4555,6.2088,3.35236
1.62,13.0875,8.72803,7.388310000000001,6.9458,2.02789,5.67627,10.408,18.4418,6.2088,3.35388
1.64,13.0737,8.7326,7.38525,6.95648,2.03094,5.69916,10.4218,18.4402,6.21033,3.35388
1.66,13.0753,8.72803,7.38525,6.967160000000001,2.03247,5.71136,10.4309,18.428,6.21033,3.35693
1.68,13.0737,8.73108,7.38525,6.9809,2.03247,5.72967,10.4309,18.4158,6.20728,3.35541
1.7,13.062999999999999,8.73108,7.38678,6.99463,2.02637,5.7617199999999995,10.4431,18.4052,6.20575,3.35388
1.72,13.062999999999999,8.7204,7.38678,7.002260000000001,2.03247,5.78461,10.4431,18.4082,6.20728,3.35083
1.74,13.0585,8.7204,7.388310000000001,7.017519999999999,2.03094,5.81055,10.4553,18.3945,6.2088,3.35388
1.76,13.0524,8.715819999999999,7.38525,7.017519999999999,2.03247,5.83191,10.4568,18.3868,6.21033,3.35236
1.78,13.0508,8.718869999999999,7.374569999999999,7.029719999999999,2.0340000000000003,5.856319999999999,10.4675,18.3823,6.2088,3.35388
1.8,13.0356,8.7204,7.37305,7.041930000000001,2.02942,5.88837,10.4675,18.3701,6.21033,3.35236
1.82,13.0386,8.718869999999999,7.374569999999999,7.041930000000001,2.02942,5.9204099999999995,10.4675,18.3594,6.21033,3.35236
1.84,13.0386,8.703610000000001,7.37305,7.054139999999999,2.02942,5.9433,10.4813,18.3548,6.2088,3.35236
1.86,13.0219,8.706660000000001,7.37305,7.0556600000000005,2.03247,5.96924,10.4752,18.3456,6.2088,3.35541
1.88,13.0264,8.709719999999999,7.374569999999999,7.066339999999999,2.02789,5.99518,10.4935,18.3334,6.21033,3.35236
1.9,13.0112,8.709719999999999,7.377619999999999,7.066339999999999,2.0340000000000003,6.01807,10.4904,18.3166,6.21185,3.35236
1.92,13.0096,8.706660000000001,7.3761,7.080080000000001,2.03247,6.05621,10.5011,18.3075,6.2088,3.35388
1.94,13.0142,8.70514,7.374569999999999,7.080080000000001,2.0340000000000003,6.08063,10.5011,18.309,6.21033,3.35236
1.96,13.002,8.703610000000001,7.37305,7.0755,2.03247,6.10199,10.5026,18.2938,6.2088,3.35388
1.98,13.0005,8.694460000000001,7.362369999999999,7.09076,2.02942,6.13861,10.5194,18.2846,6.2088,3.35388
2.0,12.9929,8.69598,7.365419999999999,7.09076,2.02789,6.16455,10.5148,18.2816,6.2088,3.35236
2.02,12.9883,8.691410000000001,7.362369999999999,7.09381,2.03094,6.18896,10.5286,18.2739,6.20728,3.35388
2.04,12.9745,8.691410000000001,7.362369999999999,7.092280000000001,2.03094,6.21033,10.5286,18.2587,6.21033,3.35236
2.06,12.9761,8.69293,7.362369999999999,7.092280000000001,2.03247,6.239319999999999,10.5331,18.2571,6.21033,3.35541
2.08,12.9776,8.69598,7.36389,7.092280000000001,2.03094,6.26221,10.5408,18.248,6.2088,3.35388
2.1,12.9639,8.68225,7.359310000000001,7.09076,2.02789,6.28509,10.5423,18.2449,6.21185,3.35236
2.12,12.9654,8.68378,7.365419999999999,7.104489999999999,2.03094,6.3125599999999995,10.5515,18.2373,6.22406,3.35083
2.14,12.9532,8.68225,7.36389,7.10602,2.0340000000000003,6.33392,10.5499,18.2358,6.22253,3.35388
2.16,12.9547,8.680719999999999,7.359310000000001,7.10297,2.0340000000000003,6.35986,10.5515,18.219,6.21948,3.35388
2.18,12.9395,8.68225,7.36084,7.10297,2.03094,6.38428,10.5667,18.2251,6.22101,3.35236
2.2,12.940999999999999,8.67004,7.347110000000001,7.09991,2.03094,6.41022,10.5667,18.2114,6.22559,3.35541
2.22,12.9379,8.67157,7.353210000000001,7.101439999999999,2.03094,6.43463,10.5774,18.2007,6.22406,3.35388
2.24,12.9257,8.67157,7.350160000000001,7.104489999999999,2.0340000000000003,6.45599,10.5759,18.1946,6.21948,3.35083
2.26,12.9272,8.66699,7.34863,7.101439999999999,2.02942,6.47278,10.5789,18.187,6.22101,3.35388
2.28,12.9135,8.67004,7.35474,7.092280000000001,2.03094,6.49414,10.5881,18.1839,6.22406,3.35083
2.3,12.9135,8.65784,7.350160000000001,7.09381,2.02942,6.51855,10.5881,18.1732,6.22406,3.35541
2.32,12.9013,8.659360000000001,7.350160000000001,7.089230000000001,2.03094,6.5429699999999995,10.5911,18.1732,6.22253,3.35236
2.34,12.9028,8.656310000000001,7.347110000000001,7.092280000000001,2.02789,6.565860000000001,10.6033,18.1595,6.22406,3.35236
2.36,12.8937,8.65784,7.350160000000001,7.09076,2.02942,6.5918,10.6018,18.158,6.21948,3.35236
2.38,12.8922,8.656310000000001,7.353210000000001,7.089230000000001,2.03094,6.61468,10.6018,18.160999999999998,6.21948,3.35388
2.4,12.8845,8.65784,7.34863,7.092280000000001,2.03247,6.64215,10.6018,18.1488,6.22406,3.35541
2.42,12.8799,8.6441,7.350160000000001,7.089230000000001,2.03094,6.665039999999999,10.614,18.1473,6.21948,3.35236
2.44,12.8769,8.64563,7.35168,7.083130000000001,2.03247,6.69556,10.6186,18.1351,6.22253,3.35083
2.46,12.8693,8.64563,7.33795,7.077030000000001,2.03094,6.72607,10.610999999999999,18.1381,6.21948,3.35236
2.48,12.8677,8.6441,7.3333699999999995,7.080080000000001,2.03247,6.74896,10.6125,18.1229,6.22101,3.35541
2.5,12.8571,8.6441,7.33795,7.080080000000001,2.03247,6.77338,10.6155,18.1244,6.22253,3.35236
2.52,12.8555,8.6441,7.33948,7.063289999999999,2.03247,6.797789999999999,10.6247,18.1091,6.22406,3.35388
2.54,12.8418,8.63342,7.341,7.06177,2.02942,6.825260000000001,10.6247,18.1137,6.22101,3.35083
2.56,12.8433,8.6319,7.33643,7.06787,2.03247,6.85425,10.6262,18.0984,6.22406,3.35693
2.58,12.8448,8.63342,7.33795,7.0556600000000005,2.03094,6.872560000000001,10.6216,18.1,6.22101,3.35541
2.6,12.8326,8.63037,7.33643,7.054139999999999,2.02942,6.89697,10.6277,18.1015,6.22101,3.35388
2.62,12.8342,8.6319,7.34863,7.0526100000000005,2.03094,6.919860000000001,10.6277,18.0908,6.22406,3.35388
2.64,12.822000000000001,8.63037,7.34863,7.054139999999999,2.02942,6.9458,10.6247,18.0862,6.22101,3.35236
2.66,12.8189,8.63342,7.34863,7.041930000000001,2.03094,6.970210000000001,10.6247,18.074,6.21948,3.35388
2.68,12.8067,8.63342,7.350160000000001,7.044980000000001,2.03247,6.99615,10.6293,18.0756,6.22406,3.35083
2.7,12.8067,8.61969,7.36084,7.041930000000001,2.02942,7.017519999999999,10.6247,18.0603,6.21948,3.35388
2.72,12.7945,8.618160000000001,7.36084,7.041930000000001,2.02942,7.0434600000000005,10.6277,18.0618,6.22101,3.35236
2.74,12.793,8.61969,7.36084,7.029719999999999,2.03094,7.054139999999999,10.6277,18.0527,6.22406,3.3493
2.76,12.7823,8.618160000000001,7.374569999999999,7.029719999999999,2.02789,7.0816,10.6293,18.0481,6.21948,3.35693
2.78,12.7823,8.62122,7.37305,7.032780000000001,2.03247,7.104489999999999,10.6262,18.0511,6.22406,3.35693
2.8,12.7853,8.62122,7.38525,7.0282,2.03094,7.1167,10.6247,18.0374,6.22253,3.35236
2.82,12.767000000000001,8.62122,7.397460000000001,7.029719999999999,2.03247,7.14111,10.6247,18.0374,6.22101,3.35388
2.84,12.7701,8.62274,7.4020399999999995,7.03125,2.03247,7.16095,10.6155,18.0252,6.22253,3.35388
2.86,12.7747,8.62274,7.4111899999999995,7.026669999999999,2.02789,7.17773,10.6155,18.0222,6.22253,3.35541
2.88,12.7594,8.61664,7.421869999999999,7.0282,2.03247,7.20367,10.610999999999999,18.0267,6.22253,3.35236
2.9,12.7609,8.62122,7.434080000000001,7.041930000000001,2.03247,7.21435,10.6155,18.0145,6.22253,3.35236
2.92,12.7625,8.60748,7.4478100000000005,7.0404,2.03094,7.229610000000001,10.610999999999999,18.0038,6.21948,3.35388
2.94,12.7441,8.61053,7.46002,7.0556600000000005,2.0340000000000003,7.2525,10.6155,18.0038,6.22253,3.35388
2.96,12.7457,8.609010000000001,7.4707,7.0526100000000005,2.02942,7.264710000000001,10.6186,17.9916,6.21948,3.35236
2.98,12.7472,8.612060000000001,7.481380000000001,7.066339999999999,2.03094,7.2876,10.6155,17.9901,6.21948,3.35541
3.0,12.7335,8.605960000000001,7.49512,7.077030000000001,2.0340000000000003,7.312010000000001,10.6155,17.9871,6.22406,3.35236
3.02,12.735,8.609010000000001,7.50732,7.09076,2.0340000000000003,7.3288,10.614,17.9794,6.22101,3.35541
3.04,12.735,8.609010000000001,7.53021,7.10297,2.03247,7.350160000000001,10.6033,17.9779,6.22101,3.35083
3.06,12.7228,8.61053,7.543939999999999,7.11517,2.03094,7.362369999999999,10.6018,17.9749,6.22406,3.35083
3.08,12.7213,8.609010000000001,7.55615,7.12891,2.03094,7.38678,10.6018,17.9642,6.22101,3.35236
3.1,12.7106,8.60443,7.58362,7.14111,2.0340000000000003,7.3989899999999995,10.6018,17.9642,6.22406,3.35388
3.12,12.7121,8.5968,7.59277,7.151789999999999,2.0340000000000003,7.4111899999999995,10.6033,17.9642,6.22559,3.35388
3.14,12.7121,8.59833,7.620239999999999,7.16247,2.03247,7.4325600000000005,10.6033,17.955,6.22101,3.35388
3.16,12.709000000000001,8.59528,7.64465,7.17773,2.03094,7.4478100000000005,10.6033,17.9535,6.22253,3.35388
3.18,12.6984,8.5968,7.65533,7.1991,2.03094,7.46155,10.6003,17.952,6.22101,3.35388
3.2,12.6984,8.59528,7.67822,7.21283,2.02942,7.4707,10.6003,17.9398,6.22253,3.35693
3.22,12.6984,8.59528,7.69348,7.223510000000001,2.03247,7.481380000000001,10.6018,17.9413,6.21948,3.35236
3.24,12.6877,8.59528,7.7194199999999995,7.24182,2.02942,7.493589999999999,10.6018,17.9413,6.22406,3.35388
3.26,12.6831,8.59528,7.73163,7.261660000000001,2.03094,7.5103800000000005,10.6094,17.9413,6.22406,3.35083
3.28,12.6877,8.5968,7.748410000000001,7.27539,2.03094,7.518,10.6003,17.9291,6.22406,3.35541
3.3,12.6846,8.5968,7.763669999999999,7.28607,2.02942,7.534789999999999,10.6018,17.9306,6.22406,3.35388
3.32,12.6724,8.58765,7.7774,7.29828,2.03247,7.54242,10.5988,17.9291,6.22101,3.35541
3.34,12.6724,8.58612,7.801819999999999,7.3211699999999995,2.02942,7.5592,10.6018,17.9169,6.22101,3.35388
3.36,12.6724,8.58612,7.81555,7.33643,2.03094,7.56988,10.6033,17.9169,6.22406,3.35236
3.38,12.6739,8.584589999999999,7.826230000000001,7.34863,2.02942,7.585139999999999,10.6018,17.9169,6.22406,3.35236
3.4,12.6602,8.58612,7.8369100000000005,7.36084,2.02789,7.59582,10.5896,17.9047,6.22559,3.35236
3.42,12.6617,8.58765,7.8598,7.37305,2.03247,7.60498,10.5865,17.9031,6.22253,3.35388
3.44,12.6617,8.584589999999999,7.87811,7.38525,2.0340000000000003,7.617189999999999,10.5911,17.9047,6.22253,3.35236
3.46,12.6617,8.584589999999999,7.888789999999999,7.3989899999999995,2.03094,7.63092,10.5911,17.8879,6.22559,3.35541
3.48,12.6465,8.581539999999999,7.9055800000000005,7.406619999999999,2.02942,7.64313,10.5896,17.8894,6.21796,3.35083
3.5,12.648,8.584589999999999,7.91321,7.41425,2.03094,7.656860000000001,10.5896,17.8894,6.22406,3.35388
3.52,12.6511,8.584589999999999,7.923889999999999,7.42035,2.03247,7.66754,10.5927,17.8802,6.22101,3.35541
3.54,12.6465,8.58612,7.93457,7.434080000000001,2.02789,7.67975,10.5927,17.8802,6.21796,3.35541
3.56,12.6358,8.57086,7.95135,7.4356100000000005,2.03094,7.69195,10.5911,17.8818,6.22101,3.35236
3.58,12.6358,8.572389999999999,7.962039999999999,7.4447600000000005,2.02942,7.70264,10.5896,17.868,6.22101,3.35693
3.6,12.6343,8.57391,7.971189999999999,7.446289999999999,2.03247,7.71789,10.5804,17.868,6.22253,3.35388
3.62,12.6328,8.57086,7.97272,7.46155,2.03094,7.72705,10.5789,17.8635,6.21948,3.35693
3.64,12.6221,8.56781,7.98645,7.4585,2.03094,7.74078,10.5789,17.8665,6.21796,3.35388
3.66,12.6221,8.572389999999999,7.99713,7.4585,2.03552,7.766719999999999,10.5743,17.8543,6.22101,3.35388
3.68,12.6236,8.57086,8.00018,7.472230000000001,2.02942,7.7774,10.5667,17.8558,6.22101,3.35541
3.7,12.6236,8.572389999999999,8.01239,7.469180000000001,2.03247,7.789610000000001,10.5652,17.8558,6.21948,3.35388
3.72,12.6129,8.57086,8.010860000000001,7.46765,2.03094,7.8033399999999995,10.5667,17.8436,6.21948,3.35846
3.74,12.6083,8.57086,8.02307,7.46765,2.03094,7.8125,10.5545,17.8421,6.22406,3.35083
3.76,12.6114,8.572389999999999,8.02612,7.4707,2.02942,7.8277600000000005,10.552999999999999,17.8406,6.22253,3.35236
3.78,12.6114,8.572389999999999,8.02307,7.4707,2.03247,7.835389999999999,10.5545,17.8406,6.23474,3.35236
3.8,12.5977,8.57086,8.03375,7.46765,2.03247,7.864380000000001,10.5438,17.8329,6.239319999999999,3.35388
3.82,12.6007,8.56323,8.03528,7.4707,2.03094,7.876589999999999,10.5408,17.8284,6.233219999999999,3.35236
