time(s),110449,100307,200391,100314,100309,100310,100312,100313,100308,100311
0.0,23.8953,5.64117,9.60083,3.7078900000000004,10.4904,5.49164,18.1503,11.1404,1.58997,0.9277340000000001
0.02,23.9471,5.63965,9.5993,3.7063599999999997,10.4919,5.49316,18.1198,11.1404,1.59149,0.9277340000000001
0.04,24.0219,5.64117,9.59778,3.7063599999999997,10.4919,5.49011,18.1091,11.1404,1.58081,0.9277340000000001
0.06,24.0814,5.65338,9.59625,3.7063599999999997,10.4935,5.49316,18.0984,11.1374,1.57776,0.9277340000000001
0.08,24.1455,5.65796,9.602360000000001,3.7048300000000003,10.4935,5.49316,18.074,11.1389,1.58081,0.926208
0.1,24.205,5.65185,9.60083,3.7078900000000004,10.4935,5.49316,18.0588,11.1404,1.58081,0.926208
0.12,24.2676,5.65643,9.59778,3.7078900000000004,10.4935,5.49469,18.0374,11.1389,1.5823399999999999,0.924682
0.14,24.3362,5.65185,9.59625,3.7063599999999997,10.4797,5.49164,18.0222,11.1282,1.57928,0.926208
0.16,24.4019,5.65643,9.5993,3.7063599999999997,10.4797,5.49164,18.0069,11.1267,1.58081,0.926208
0.18,24.4659,5.65338,9.60083,3.7078900000000004,10.4813,5.49164,17.9886,11.1267,1.57928,0.9292600000000001
0.2,24.5239,5.65185,9.59778,3.7033099999999997,10.4828,5.49011,17.9749,11.1298,1.57623,0.926208
0.22,24.5865,5.65033,9.60083,3.7048300000000003,10.4813,5.49011,17.9504,11.1282,1.57928,0.9277340000000001
0.24,24.6475,5.65185,9.5993,3.7063599999999997,10.4782,5.49011,17.9382,11.1282,1.58081,0.9277340000000001
0.26,24.704,5.65033,9.60083,3.7063599999999997,10.4782,5.49164,17.9276,11.1298,1.57928,0.9292600000000001
0.28,24.7543,5.6427,9.60083,3.7063599999999997,10.4797,5.49622,17.9153,11.1252,1.57928,0.9292600000000001
0.3,24.8062,5.63965,9.5993,3.7078900000000004,10.4767,5.49011,17.9047,11.1282,1.58081,0.9277340000000001
0.32,24.855,5.64117,9.60083,3.7048300000000003,10.4782,5.4779,17.8879,11.1282,1.57776,0.926208
0.34,24.9039,5.63965,9.60083,3.7063599999999997,10.4797,5.479430000000001,17.8757,11.1282,1.58081,0.9292600000000001
0.36,24.9557,5.64117,9.5993,3.7048300000000003,10.4782,5.476380000000001,17.865,11.1267,1.57928,0.9277340000000001
0.38,25.0031,5.64117,9.5993,3.7078900000000004,10.4767,5.4779,17.8558,11.1298,1.57623,0.9307860000000001
0.4,25.0534,5.63507,9.59625,3.7078900000000004,10.4828,5.48096,17.8421,11.1282,1.58386,0.9277340000000001
0.42,25.1038,5.63965,9.59778,3.7063599999999997,10.4797,5.4779,17.8284,11.1267,1.58081,0.924682
0.44,25.1465,5.63965,9.59778,3.7063599999999997,10.4782,5.4779,17.8146,11.1282,1.58081,0.9277340000000001
0.46,25.1862,5.63812,9.60083,3.7078900000000004,10.4813,5.48096,17.804000000000002,11.1282,1.57776,0.9292600000000001
0.48,25.2243,5.64117,9.58252,3.7078900000000004,10.4752,5.48096,17.7902,11.1313,1.58081,0.9292600000000001
0.5,25.2747,5.64117,9.58862,3.7078900000000004,10.4797,5.4779,17.778,11.1282,1.58386,0.926208
0.52,25.3082,5.64423,9.5871,3.7063599999999997,10.4782,5.48096,17.7673,11.1267,1.58081,0.9277340000000001
0.54,25.3464,5.63965,9.58404,3.7094099999999997,10.4797,5.479430000000001,17.7551,11.1267,1.57928,0.9277340000000001
0.56,25.3799,5.63965,9.5871,3.7063599999999997,10.4813,5.479430000000001,17.7429,11.1313,1.5823399999999999,0.9292600000000001
0.58,25.415,5.63965,9.58557,3.7033099999999997,10.4782,5.479430000000001,17.7429,11.1313,1.58081,0.926208
0.6,25.4517,5.63965,9.5871,3.7078900000000004,10.4813,5.482480000000001,17.7307,11.1282,1.57776,0.9277340000000001
0.62,25.4745,5.63965,9.5871,3.7048300000000003,10.4767,5.4779,17.717,11.116,1.57928,0.926208
0.64,25.5112,5.64117,9.5871,3.7094099999999997,10.4797,5.479430000000001,17.7048,11.1206,1.58386,0.9277340000000001
0.66,25.5356,5.64117,9.5871,3.7048300000000003,10.4797,5.4779,17.6956,11.1176,1.57776,0.926208
0.68,25.5585,5.64117,9.58404,3.7063599999999997,10.4828,5.479430000000001,17.6819,11.116,1.58081,0.926208
0.7,25.5951,5.63812,9.58862,3.7078900000000004,10.4797,5.48096,17.6697,11.1176,1.57776,0.9277340000000001
0.72,25.6241,5.63965,9.5871,3.7078900000000004,10.4797,5.479430000000001,17.659000000000002,11.1176,1.57928,0.9277340000000001
0.74,25.6424,5.64117,9.58099,3.7063599999999997,10.4767,5.479430000000001,17.6437,11.116,1.57928,0.9277340000000001
0.76,25.6851,5.63812,9.57489,3.7078900000000004,10.4813,5.4779,17.6437,11.116,1.58081,0.9292600000000001
0.78,25.708000000000002,5.64575,9.57184,3.7063599999999997,10.4813,5.479430000000001,17.6331,11.116,1.57928,0.9307860000000001
0.8,25.7339,5.64117,9.573360000000001,3.7094099999999997,10.4813,5.479430000000001,17.6208,11.116,1.57776,0.926208
0.82,25.7584,5.63812,9.573360000000001,3.7109400000000003,10.4797,5.476380000000001,17.6239,11.116,1.58386,0.9292600000000001
0.84,25.7812,5.63965,9.573360000000001,3.7109400000000003,10.4813,5.48096,17.6041,11.1145,1.58081,0.9277340000000001
0.86,25.8041,5.6427,9.573360000000001,3.7078900000000004,10.4797,5.479430000000001,17.598,11.116,1.58081,0.9277340000000001
0.88,25.8179,5.63965,9.573360000000001,3.7063599999999997,10.4767,5.48096,17.5934,11.1099,1.57928,0.9277340000000001
0.9,25.8392,5.63965,9.57947,3.7033099999999997,10.4797,5.482480000000001,17.5842,11.1145,1.58081,0.9292600000000001
0.92,25.8652,5.64117,9.576419999999999,3.7109400000000003,10.4782,5.476380000000001,17.5858,11.116,1.57928,0.9277340000000001
0.94,25.885,5.6427,9.57489,3.7063599999999997,10.4797,5.479430000000001,17.569000000000003,11.1176,1.57928,0.926208
0.96,25.9048,5.64117,9.57489,3.7048300000000003,10.4797,5.4779,17.5629,11.1176,1.58081,0.9277340000000001
0.98,25.9308,5.64117,9.573360000000001,3.7063599999999997,10.4782,5.48096,17.5598,11.116,1.57623,0.9277340000000001
1.0,25.9415,5.63965,9.57489,3.7063599999999997,10.4797,5.479430000000001,17.5507,11.1038,1.57928,0.9277340000000001
1.02,25.9628,5.6427,9.57489,3.7094099999999997,10.4813,5.4779,17.5476,11.1038,1.58081,0.9292600000000001
1.04,25.9903,5.6366,9.573360000000001,3.7078900000000004,10.4767,5.479430000000001,17.543,11.1053,1.58081,0.9277340000000001
1.06,26.0025,5.63965,9.57489,3.7063599999999997,10.4797,5.48096,17.5354,11.1053,1.57623,0.9292600000000001
1.08,26.0269,5.64575,9.56268,3.7109400000000003,10.4797,5.482480000000001,17.5354,11.1038,1.57928,0.9277340000000001
1.1,26.0513,5.6427,9.561160000000001,3.7109400000000003,10.4813,5.48096,17.5232,11.1023,1.58081,0.9292600000000001
1.12,26.0757,5.63812,9.561160000000001,3.7094099999999997,10.4691,5.479430000000001,17.5232,11.1008,1.5823399999999999,0.9307860000000001
1.14,26.0941,5.64423,9.56573,3.7078900000000004,10.466,5.48096,17.5125,11.1053,1.57928,0.9292600000000001
1.16,26.1139,5.63965,9.55963,3.7109400000000003,10.4691,5.482480000000001,17.511,11.1038,1.58081,0.9292600000000001
1.18,26.1368,5.64117,9.56573,3.7063599999999997,10.466,5.48096,17.5003,11.1023,1.58081,0.9277340000000001
1.2,26.1612,5.64117,9.5581,3.7078900000000004,10.4706,5.48096,17.5034,11.1069,1.5823399999999999,0.926208
1.22,26.1871,5.64117,9.561160000000001,3.7124599999999996,10.466,5.479430000000001,17.4881,11.1008,1.57928,0.9307860000000001
1.24,26.1978,5.63812,9.564210000000001,3.7094099999999997,10.4675,5.48096,17.4896,11.1038,1.57928,0.926208
1.26,26.2222,5.64423,9.56268,3.7094099999999997,10.4691,5.4779,17.4713,11.1038,1.5823399999999999,0.9292600000000001
1.28,26.2482,5.63965,9.552,3.7063599999999997,10.4675,5.48096,17.4744,11.1038,1.58081,0.9292600000000001
1.3,26.2711,5.64117,9.547419999999999,3.7063599999999997,10.4691,5.4779,17.4759,11.1038,1.57928,0.9277340000000001
1.32,26.2955,5.64117,9.54895,3.7094099999999997,10.466,5.48096,17.4622,11.1023,1.57928,0.9292600000000001
1.34,26.3092,5.63965,9.547419999999999,3.7078900000000004,10.4691,5.482480000000001,17.4652,11.1023,1.5823399999999999,0.9277340000000001
1.36,26.3351,5.64117,9.54895,3.7078900000000004,10.466,5.479430000000001,17.4484,11.1038,1.58081,0.9277340000000001
1.38,26.358,5.63812,9.552,3.7063599999999997,10.4691,5.48096,17.45,11.1145,1.57928,0.9292600000000001
1.4,26.3855,5.63965,9.547419999999999,3.7216199999999997,10.466,5.482480000000001,17.4362,11.116,1.58081,0.9277340000000001
1.42,26.4053,5.6427,9.552,3.7185699999999997,10.4691,5.482480000000001,17.4362,11.1145,1.57623,0.9277340000000001
1.44,26.4145,5.63965,9.55048,3.7200900000000003,10.466,5.479430000000001,17.4362,11.116,1.57776,0.9323110000000001
1.46,26.441999999999997,5.64117,9.55048,3.7185699999999997,10.466,5.479430000000001,17.4271,11.116,1.57776,0.926208
1.48,26.4694,5.63965,9.53674,3.7185699999999997,10.4675,5.479430000000001,17.4271,11.116,1.5853899999999999,0.9277340000000001
1.5,26.4923,5.6427,9.535219999999999,3.7231400000000003,10.4675,5.48096,17.424,11.1145,1.57928,0.926208
1.52,26.506,5.64117,9.541319999999999,3.7170400000000003,10.4675,5.476380000000001,17.4149,11.1267,1.57928,0.924682
1.54,26.5335,5.64423,9.53674,3.7200900000000003,10.466,5.48096,17.4149,11.1252,1.58081,0.9277340000000001
1.56,26.5549,5.64117,9.53674,3.7170400000000003,10.466,5.48096,17.4149,11.1282,1.58386,0.9292600000000001
1.58,26.5793,5.63965,9.53369,3.7170400000000003,10.466,5.482480000000001,17.4011,11.1282,1.58081,0.926208
1.6,26.5884,5.64117,9.535219999999999,3.7185699999999997,10.466,5.48096,17.4042,11.1282,1.57928,0.9292600000000001
1.62,26.6113,5.63965,9.53674,3.7185699999999997,10.466,5.482480000000001,17.3889,11.1404,1.57928,0.9277340000000001
1.64,26.6296,5.6427,9.535219999999999,3.7231400000000003,10.4691,5.4779,17.3889,11.1404,1.5823399999999999,0.9277340000000001
1.66,26.6373,5.63812,9.541319999999999,3.7200900000000003,10.466,5.46875,17.3782,11.142000000000001,1.58081,0.9277340000000001
1.68,26.6571,5.64117,9.538269999999999,3.7200900000000003,10.4675,5.46875,17.3767,11.1542,1.57928,0.9277340000000001
1.7,26.6769,5.64117,9.538269999999999,3.7185699999999997,10.463,5.46875,17.3782,11.1526,1.57776,0.9292600000000001
1.72,26.6891,5.63965,9.538269999999999,3.73383,10.4721,5.46875,17.3614,11.1542,1.58081,0.924682
1.74,26.7044,5.63965,9.535219999999999,3.7307699999999997,10.466,5.48096,17.3645,11.1633,1.57928,0.9277340000000001
1.76,26.7227,5.64117,9.538269999999999,3.7323,10.4675,5.46875,17.363,11.1633,1.57623,0.924682
1.78,26.738000000000003,5.63965,9.53979,3.72925,10.4691,5.470280000000001,17.3614,11.1771,1.57928,0.9277340000000001
1.8,26.7502,5.64117,9.523010000000001,3.7307699999999997,10.4706,5.467219999999999,17.3538,11.1771,1.5823399999999999,0.9277340000000001
1.82,26.7731,5.63965,9.523010000000001,3.7307699999999997,10.4645,5.467219999999999,17.3523,11.1893,1.58081,0.9277340000000001
1.84,26.7868,5.63812,9.526060000000001,3.7307699999999997,10.4675,5.46875,17.3538,11.1984,1.57928,0.926208
1.86,26.8005,5.64117,9.526060000000001,3.7307699999999997,10.4675,5.470280000000001,17.3553,11.2015,1.57928,0.926208
1.88,26.8234,5.64117,9.523010000000001,3.72925,10.4645,5.4657,17.3508,11.2122,1.57776,0.9307860000000001
1.9,26.8326,5.64117,9.523010000000001,3.73383,10.4645,5.473330000000001,17.3508,11.2274,1.5823399999999999,0.924682
1.92,26.8509,5.64117,9.523010000000001,3.73535,10.4691,5.4657,17.3386,11.2259,1.58081,0.9277340000000001
1.94,26.8616,5.6427,9.52454,3.7323,10.466,5.467219999999999,17.3401,11.2381,1.58081,0.9277340000000001
1.96,26.886,5.64423,9.523010000000001,3.72925,10.4675,5.4657,17.337,11.2549,1.58081,0.9277340000000001
1.98,26.8967,5.63965,9.52454,3.73993,10.466,5.46875,17.3416,11.261,1.57928,0.923156
2.0,26.9119,5.64423,9.52759,3.74451,10.4675,5.467219999999999,17.3401,11.2747,1.57928,0.9292600000000001
2.02,26.9211,5.63965,9.52454,3.74145,10.4675,5.46875,17.3294,11.2839,1.57471,0.9277340000000001
2.04,26.9348,5.63965,9.51233,3.74603,10.4675,5.46875,17.3279,11.3007,1.5823399999999999,0.9307860000000001
2.06,26.947,5.63965,9.51233,3.74451,10.466,5.470280000000001,17.3294,11.3251,1.57928,0.9292600000000001
2.08,26.9562,5.63965,9.51233,3.74603,10.4691,5.467219999999999,17.3264,11.3358,1.5823399999999999,0.926208
2.1,26.9592,5.64117,9.50928,3.74603,10.4691,5.467219999999999,17.3172,11.3464,1.58081,0.926208
2.12,26.9714,5.63965,9.51538,3.74298,10.4645,5.46875,17.3141,11.3602,1.58081,0.9277340000000001
2.14,26.9836,5.6427,9.51385,3.74451,10.4675,5.467219999999999,17.3157,11.3708,1.57928,0.9277340000000001
2.16,26.9958,5.63965,9.5108,3.74298,10.4691,5.46875,17.3157,11.3953,1.57928,0.923156
2.18,27.0081,5.63965,9.51233,3.74298,10.4675,5.46875,17.3141,11.412,1.57928,0.9292600000000001
2.2,27.0035,5.64423,9.51385,3.74145,10.4691,5.4657,17.3141,11.4182,1.57776,0.9292600000000001
2.22,27.0187,5.64117,9.51233,3.74298,10.4691,5.467219999999999,17.3019,11.4456,1.58081,0.924682
2.24,27.0309,5.63965,9.51385,3.75366,10.4675,5.467219999999999,17.3035,11.4548,1.5823399999999999,0.9292600000000001
2.26,27.0294,5.62744,9.51538,3.75671,10.4675,5.46875,17.3065,11.4807,1.57928,0.926208
2.28,27.0416,5.62897,9.5108,3.7582400000000002,10.4675,5.467219999999999,17.3035,11.495999999999999,1.5823399999999999,0.926208
2.3,27.0416,5.62744,9.51538,3.7551900000000002,10.4691,5.4657,17.305,11.5189,1.57928,0.926208
2.32,27.0523,5.62744,9.51233,3.7582400000000002,10.466,5.46875,17.305,11.5326,1.57776,0.9277340000000001
2.34,27.0554,5.62744,9.51233,3.7597699999999996,10.466,5.464169999999999,17.2974,11.557,1.58081,0.9292600000000001
2.36,27.0554,5.62592,9.50928,3.7551900000000002,10.4675,5.46875,17.2897,11.5784,1.57928,0.9277340000000001
2.38,27.0554,5.62744,9.51233,3.75671,10.466,5.467219999999999,17.2882,11.5997,1.57928,0.9307860000000001
2.4,27.0599,5.62744,9.51385,3.7597699999999996,10.4645,5.46875,17.2913,11.6165,1.58081,0.9277340000000001
2.42,27.0676,5.62744,9.50165,3.7551900000000002,10.4691,5.46875,17.2913,11.644,1.57928,0.926208
2.44,27.0645,5.62897,9.50165,3.75671,10.466,5.470280000000001,17.2882,11.6653,1.5823399999999999,0.9277340000000001
2.46,27.0645,5.62592,9.50165,3.7582400000000002,10.4691,5.46875,17.2913,11.6913,1.58081,0.926208
2.48,27.0782,5.62897,9.497069999999999,3.7582400000000002,10.4691,5.46875,17.2821,11.7142,1.58081,0.923156
2.5,27.0813,5.62897,9.50165,3.7582400000000002,10.4691,5.470280000000001,17.2775,11.734000000000002,1.57928,0.926208
2.52,27.0782,5.62439,9.500119999999999,3.7551900000000002,10.4645,5.470280000000001,17.2791,11.7523,1.5823399999999999,0.924682
2.54,27.092,5.62744,9.500119999999999,3.7612900000000002,10.4675,5.470280000000001,17.2775,11.7767,1.57928,0.9277340000000001
2.56,27.092,5.62744,9.50165,3.7582400000000002,10.463,5.467219999999999,17.2791,11.8042,1.57928,0.9277340000000001
2.58,27.1072,5.62744,9.500119999999999,3.7689199999999996,10.4706,5.467219999999999,17.2775,11.8134,1.58081,0.926208
2.6,27.1042,5.62592,9.500119999999999,3.7673900000000002,10.4675,5.467219999999999,17.2653,11.8378,1.58081,0.926208
2.62,27.1057,5.62439,9.500119999999999,3.7658699999999996,10.4691,5.464169999999999,17.2699,11.8637,1.58081,0.9277340000000001
2.64,27.1164,5.62744,9.497069999999999,3.7673900000000002,10.4691,5.467219999999999,17.2623,11.8835,1.57776,0.9292600000000001
2.66,27.1133,5.62897,9.50165,3.7719699999999996,10.4782,5.46875,17.2653,11.9125,1.58081,0.9277340000000001
2.68,27.1179,5.62897,9.4986,3.77045,10.4782,5.467219999999999,17.2668,11.9354,1.57928,0.9292600000000001
2.7,27.1317,5.62897,9.4986,3.7689199999999996,10.4797,5.4657,17.2668,11.9614,1.58081,0.9307860000000001
2.72,27.1286,5.62592,9.48944,3.7673900000000002,10.4767,5.46875,17.2653,11.9751,1.57776,0.9307860000000001
2.74,27.1301,5.62744,9.48639,3.7735,10.4767,5.467219999999999,17.2546,11.9965,1.57928,0.9292600000000001
2.76,27.1423,5.62744,9.487910000000001,3.7689199999999996,10.4813,5.467219999999999,17.2546,12.0209,1.58386,0.924682
2.78,27.1439,5.62592,9.487910000000001,3.7673900000000002,10.4797,5.467219999999999,17.2531,12.0438,1.57928,0.924682
2.8,27.1393,5.63049,9.484860000000001,3.7689199999999996,10.4767,5.4657,17.2546,12.0728,1.58081,0.9277340000000001
2.82,27.1408,5.63354,9.487910000000001,3.7673900000000002,10.4782,5.46875,17.2577,12.0941,1.57776,0.9277340000000001
2.84,27.1545,5.62439,9.487910000000001,3.7689199999999996,10.4813,5.4657,17.2577,12.1201,1.58081,0.926208
2.86,27.1515,5.62744,9.500119999999999,3.77045,10.4797,5.46875,17.2546,12.1338,1.58081,0.9277340000000001
2.88,27.1515,5.63049,9.497069999999999,3.7689199999999996,10.4904,5.46875,17.2531,12.1582,1.5823399999999999,0.9307860000000001
2.9,27.1561,5.62592,9.500119999999999,3.7673900000000002,10.4904,5.470280000000001,17.2546,12.1811,1.58081,0.9292600000000001
2.92,27.153000000000002,5.62592,9.50165,3.7673900000000002,10.4889,5.467219999999999,17.2394,12.2055,1.58081,0.9277340000000001
2.94,27.1652,5.62897,9.4986,3.77045,10.4889,5.4657,17.244,12.2299,1.5823399999999999,0.9277340000000001
2.96,27.1637,5.62744,9.500119999999999,3.7658699999999996,10.4935,5.4657,17.2394,12.2528,1.58081,0.926208
2.98,27.1698,5.62897,9.50165,3.7673900000000002,10.4889,5.46875,17.2394,12.265,1.5823399999999999,0.9277340000000001
3.0,27.1667,5.62744,9.4986,3.7689199999999996,10.4919,5.4718,17.2409,12.2925,1.57928,0.924682
3.02,27.1667,5.62592,9.4986,3.77045,10.4904,5.467219999999999,17.2409,12.3154,1.5823399999999999,0.9277340000000001
3.04,27.1652,5.62744,9.50165,3.7735,10.5041,5.467219999999999,17.2424,12.325999999999999,1.57928,0.9277340000000001
3.06,27.1667,5.62592,9.49554,3.7673900000000002,10.5026,5.467219999999999,17.2379,12.352,1.58081,0.926208
3.08,27.153000000000002,5.63202,9.50165,3.7719699999999996,10.5041,5.46875,17.2424,12.3627,1.57776,0.926208
3.1,27.15,5.62592,9.497069999999999,3.7658699999999996,10.5057,5.467219999999999,17.244,12.3917,1.5823399999999999,0.9277340000000001
3.12,27.153000000000002,5.62897,9.500119999999999,3.7689199999999996,10.5026,5.4657,17.2455,12.4008,1.58386,0.9307860000000001
3.14,27.1469,5.61676,9.50165,3.77045,10.5011,5.46875,17.2333,12.4146,1.57928,0.926208
3.16,27.1423,5.61218,9.50165,3.7719699999999996,10.5011,5.4657,17.2287,12.4359,1.57776,0.9292600000000001
3.18,27.1378,5.61523,9.4986,3.7689199999999996,10.5041,5.467219999999999,17.2272,12.4496,1.58081,0.9277340000000001
3.2,27.1408,5.61676,9.500119999999999,3.78265,10.5164,5.467219999999999,17.2302,12.4741,1.57928,0.9277340000000001
3.22,27.1408,5.61523,9.500119999999999,3.78113,10.5148,5.470280000000001,17.2317,12.4847,1.57776,0.924682
3.24,27.1393,5.61523,9.50165,3.78113,10.5164,5.4779,17.2272,12.5122,1.57928,0.926208
3.26,27.1408,5.61523,9.50165,3.77808,10.5179,5.4779,17.2302,12.5229,1.57928,0.924682
3.28,27.1408,5.61676,9.500119999999999,3.78265,10.5133,5.46875,17.2287,12.5351,1.57928,0.9307860000000001
3.3,27.1423,5.61676,9.497069999999999,3.78265,10.5164,5.46875,17.244,12.5626,1.57928,0.924682
3.32,27.1423,5.61676,9.500119999999999,3.77808,10.5164,5.479430000000001,17.2409,12.5763,1.57776,0.9292600000000001
3.34,27.1408,5.61523,9.48944,3.78265,10.5164,5.48096,17.2424,12.5824,1.57623,0.924682
3.36,27.1378,5.61676,9.484860000000001,3.78113,10.5225,5.4779,17.2424,12.5961,1.57928,0.926208
3.38,27.1423,5.61371,9.487910000000001,3.78418,10.5286,5.4779,17.2409,12.6099,1.57471,0.926208
3.4,27.1408,5.61676,9.48944,3.78418,10.5286,5.48096,17.2531,12.6282,1.58081,0.926208
3.42,27.1271,5.61371,9.48944,3.77808,10.5301,5.482480000000001,17.2546,12.6419,1.57928,0.9277340000000001
3.44,27.1301,5.61829,9.48944,3.7796,10.5286,5.479430000000001,17.2546,12.6587,1.58081,0.9292600000000001
3.46,27.1286,5.62134,9.487910000000001,3.77808,10.5316,5.476380000000001,17.2668,12.6709,1.57928,0.9292600000000001
3.48,27.1286,5.61218,9.472660000000001,3.78265,10.527000000000001,5.48096,17.2638,12.6831,1.58081,0.924682
3.5,27.1271,5.61676,9.47418,3.78265,10.5301,5.479430000000001,17.276,12.6923,1.57776,0.9277340000000001
3.52,27.1255,5.61523,9.478760000000001,3.78113,10.5377,5.479430000000001,17.2882,12.6938,1.57928,0.926208
3.54,27.1332,5.61676,9.47113,3.78113,10.5408,5.476380000000001,17.2913,12.7106,1.57776,0.9277340000000001
3.56,27.1255,5.61676,9.472660000000001,3.78113,10.5423,5.48096,17.3019,12.7182,1.5823399999999999,0.9277340000000001
3.58,27.1286,5.61523,9.47418,3.7796,10.5392,5.479430000000001,17.3157,12.7289,1.57928,0.926208
3.6,27.1271,5.61523,9.4635,3.78418,10.5423,5.482480000000001,17.3264,12.7411,1.57471,0.9277340000000001
3.62,27.1255,5.61523,9.4635,3.78113,10.5438,5.48096,17.3355,12.7563,1.57776,0.926208
