time(s),100453,100454,100255,100257,100251,100256,200387,110422,100254,100252
0.0,9.29718,21.965,5.11322,0.6958,0.98093,4.49219,9.08203,10.8109,5.50079,8.24432
0.02,9.3338,21.9513,5.10864,0.694274,0.98093,4.49219,9.08356,10.8093,5.50232,8.24585
0.04,9.356689999999999,21.9528,5.11017,0.6958,0.982456,4.49066,9.07135,10.8078,5.49622,8.2428
0.06,9.39178,21.9543,5.10712,0.6912229999999999,0.98093,4.49066,9.06982,10.8063,5.50232,8.2428
0.08,9.41467,21.9513,5.11017,0.6927479999999999,0.98093,4.48914,9.0683,10.8093,5.50079,8.24585
0.1,9.440610000000001,21.9376,5.11322,0.6912229999999999,0.98093,4.49219,9.07135,10.8078,5.49927,8.24432
0.12,9.47723,21.9376,5.11169,0.6958,0.98093,4.47693,9.0683,10.8124,5.50232,8.24585
0.14,9.4986,21.9376,5.12237,0.694274,0.977878,4.47998,9.07288,10.8078,5.50079,8.2428
0.16,9.51385,21.9421,5.12237,0.6958,0.98093,4.47693,9.06982,10.8093,5.50232,8.24432
0.18,9.538269999999999,21.9376,5.1239,0.694274,0.979404,4.47693,9.07135,10.8093,5.50384,8.2428
0.2,9.56573,21.9284,5.1239,0.6927479999999999,0.98093,4.47845,9.07288,10.8078,5.50232,8.24585
0.22,9.576419999999999,21.9269,5.12237,0.694274,0.98093,4.47845,9.06982,10.8078,5.48859,8.25653
0.24,9.58862,21.9269,5.1239,0.6958,0.974827,4.4754,9.07288,10.7971,5.49011,8.25348
0.26,9.60083,21.9269,5.12237,0.6958,0.979404,4.47845,9.07288,10.7971,5.48859,8.25653
0.28,9.62677,21.9284,5.1239,0.6958,0.993137,4.47845,9.07288,10.7956,5.48859,8.255
0.3,9.63898,21.9177,5.1239,0.694274,0.991611,4.47998,9.07135,10.7971,5.48706,8.25653
0.32,9.64966,21.9177,5.1361099999999995,0.6958,0.993137,4.47845,9.07135,10.7956,5.49316,8.25806
0.34,9.66339,21.9223,5.137630000000001,0.694274,0.994663,4.47998,9.0683,10.7971,5.49011,8.25653
0.36,9.68628,21.9147,5.137630000000001,0.706481,0.993137,4.47845,9.06982,10.7956,5.48859,8.25958
0.38,9.70001,21.9147,5.1361099999999995,0.704955,0.993137,4.48151,9.07288,10.7941,5.49164,8.25806
0.4,9.71222,21.9009,5.1361099999999995,0.706481,0.993137,4.47693,9.06982,10.7941,5.49011,8.25653
0.42,9.72443,21.904,5.134580000000001,0.7080069999999999,0.993137,4.47693,9.07135,10.7986,5.49011,8.27179
0.44,9.73663,21.904,5.137630000000001,0.706481,0.993137,4.47845,9.0683,10.7956,5.48859,8.26721
0.46,9.74579,21.8948,5.137630000000001,0.706481,0.994663,4.47235,9.07135,10.7941,5.476380000000001,8.27179
0.48,9.75952,21.8903,5.1483099999999995,0.704955,0.993137,4.4754,9.07135,10.7971,5.48096,8.26721
0.5,9.7702,21.8765,5.1483099999999995,0.7080069999999999,0.994663,4.47845,9.07288,10.7956,5.479430000000001,8.26721
0.52,9.78546,21.8674,5.1483099999999995,0.706481,0.9992409999999999,4.48151,9.07288,10.7941,5.48096,8.26874
0.54,9.79614,21.8658,5.14679,0.706481,0.991611,4.47845,9.0744,10.790999999999999,5.479430000000001,8.26569
0.56,9.80835,21.8536,5.14679,0.706481,0.991611,4.47845,9.07135,10.7971,5.46265,8.26874
0.58,9.82056,21.8445,5.14984,0.706481,0.994663,4.47693,9.07135,10.7956,5.46265,8.27026
0.6,9.83124,21.8445,5.14984,0.709533,0.994663,4.4754,9.07135,10.7941,5.4657,8.26569
0.62,9.84039,21.8292,5.15747,0.706481,0.993137,4.48151,9.07135,10.7941,5.4657,8.27026
0.64,9.86023,21.8307,5.16357,0.706481,0.991611,4.47693,9.07135,10.7971,5.464169999999999,8.27026
0.66,9.86633,21.8185,5.159,0.706481,0.993137,4.47998,9.05914,10.7956,5.464169999999999,8.28247
0.68,9.86786,21.8201,5.1651,0.706481,0.991611,4.47693,9.05914,10.7941,5.46265,8.27942
0.7,9.88159,21.8201,5.15594,0.706481,1.00534,4.47845,9.05914,10.7986,5.464169999999999,8.27789
0.72,9.88159,21.8063,5.159,0.706481,1.0068700000000002,4.48151,9.05609,10.7941,5.4657,8.28094
0.74,9.89532,21.8063,5.1727300000000005,0.704955,1.0084,4.47845,9.05456,10.7971,5.461119999999999,8.27789
0.76,9.89532,21.8079,5.1757800000000005,0.704955,1.00534,4.47998,9.05456,10.7803,5.4657,8.283999999999999
0.78,9.90906,21.7941,5.1727300000000005,0.7080069999999999,1.0038200000000002,4.47693,9.05762,10.7834,5.46265,8.27942
0.8,9.90143,21.7957,5.17425,0.704955,1.00229,4.47845,9.05914,10.7834,5.46265,8.28094
0.82,9.90601,21.7957,5.1818800000000005,0.704955,1.0038200000000002,4.47693,9.05762,10.7819,5.45196,8.27942
0.84,9.91821,21.7804,5.18494,0.706481,1.00534,4.47693,9.06067,10.7864,5.45196,8.28094
0.86,9.91821,21.7789,5.18494,0.706481,1.00534,4.47845,9.05914,10.788,5.455019999999999,8.27789
0.88,9.91669,21.7789,5.18494,0.7080069999999999,1.0038200000000002,4.47998,9.06067,10.7819,5.455019999999999,8.27942
0.9,9.93195,21.7697,5.19867,0.706481,1.00534,4.48151,9.05762,10.7819,5.45349,8.27942
0.92,9.93195,21.7697,5.19867,0.70343,1.0038200000000002,4.4754,9.05609,10.7834,5.455019999999999,8.28094
0.94,9.928889999999999,21.7682,5.19867,0.704955,1.01603,4.47693,9.05456,10.7849,5.455019999999999,8.27942
0.96,9.928889999999999,21.7682,5.19562,0.704955,1.01755,4.47388,9.05762,10.7819,5.45044,8.27942
0.98,9.93042,21.7575,5.19867,0.704955,1.01603,4.47693,9.05609,10.7819,5.45196,8.283999999999999
1.0,9.92737,21.756,5.20019,0.704955,1.0206,4.47845,9.05762,10.7849,5.455019999999999,8.28247
1.02,9.93957,21.7575,5.21088,0.706481,1.02213,4.4754,9.05762,10.7819,5.45349,8.27637
1.04,9.93957,21.7575,5.2124,0.709533,1.01908,4.4754,9.05609,10.7849,5.45196,8.27942
1.06,9.93042,21.7575,5.21088,0.706481,1.01908,4.47998,9.06067,10.7849,5.455019999999999,8.27942
1.08,9.93195,21.7422,5.2124,0.704955,1.02823,4.48151,9.06219,10.7819,5.45196,8.27637
1.1,9.928889999999999,21.7453,5.20935,0.706481,1.02823,4.47845,9.05914,10.7819,5.45196,8.27942
1.12,9.93195,21.7438,5.2063,0.7080069999999999,1.02976,4.47693,9.05914,10.7834,5.44281,8.27942
1.14,9.93195,21.7346,5.22308,0.7080069999999999,1.02823,4.47845,9.05914,10.7864,5.44434,8.28247
1.16,9.93042,21.7331,5.22003,0.709533,1.02823,4.4754,9.05762,10.7819,5.44128,8.27942
1.18,9.91516,21.7194,5.22156,0.7080069999999999,1.04349,4.47845,9.05914,10.7803,5.44281,8.27789
1.2,9.91669,21.7072,5.22003,0.701904,1.04349,4.47845,9.04694,10.7849,5.44128,8.27942
1.22,9.91669,21.6919,5.22156,0.70343,1.04197,4.47998,9.04999,10.7849,5.44128,8.27942
1.24,9.90448,21.6827,5.22308,0.70343,1.04502,4.47693,9.04541,10.7849,5.44281,8.27942
1.26,9.90295,21.6705,5.22308,0.704955,1.05417,4.47693,9.04694,10.7834,5.44128,8.28247
1.28,9.90753,21.6614,5.22308,0.706481,1.05417,4.47998,9.04236,10.7849,5.44128,8.27789
1.3,9.89227,21.6599,5.23682,0.717163,1.05265,4.48151,9.04694,10.7834,5.44281,8.27789
1.32,9.8938,21.6476,5.23682,0.720214,1.0679100000000001,4.47693,9.04541,10.7834,5.44586,8.27942
1.34,9.8938,21.6339,5.23376,0.720214,1.0663799999999999,4.47845,9.04388,10.7864,5.44128,8.27942
1.36,9.88312,21.6293,5.23529,0.715637,1.0770600000000001,4.47845,9.04541,10.7864,5.44128,8.27942
1.38,9.88007,21.6202,5.23071,0.723266,1.0755299999999999,4.48151,9.04694,10.7849,5.44128,8.28247
1.4,9.88464,21.6202,5.23376,0.7217399999999999,1.0892700000000002,4.48151,9.04694,10.7986,5.43823,8.27942
1.42,9.86633,21.6232,5.23376,0.720214,1.0892700000000002,4.47693,9.04236,10.7925,5.44128,8.29468
1.44,9.86938,21.6064,5.23376,0.720214,1.09995,4.47693,9.04388,10.7986,5.43976,8.29163
1.46,9.87091,21.608,5.24597,0.720214,1.11368,4.47998,9.04999,10.7986,5.43976,8.29163
1.48,9.86175,21.5988,5.24597,0.720214,1.11826,4.47693,9.04541,10.7941,5.43976,8.29468
1.5,9.85565,21.5973,5.2475,0.718688,1.12589,4.4754,9.04694,10.7956,5.44128,8.29163
1.52,9.8587,21.5988,5.23987,0.7141109999999999,1.13962,4.47845,9.04846,10.8002,5.44281,8.2962
1.54,9.84192,21.5851,5.2475,0.718688,1.13962,4.47998,9.04694,10.7971,5.44128,8.29163
1.56,9.84497,21.5851,5.24292,0.718688,1.15183,4.47998,9.04541,10.7956,5.43976,8.29315
1.58,9.83581,21.5729,5.24597,0.720214,1.16556,4.47693,9.04846,10.7956,5.43976,8.29315
1.6,9.83429,21.5744,5.25665,0.720214,1.17624,4.47693,9.04694,10.7941,5.44281,8.29315
1.62,9.82361,21.5713,5.25818,0.720214,1.17624,4.48151,9.04694,10.7956,5.426019999999999,8.29163
1.64,9.82056,21.5622,5.26123,0.720214,1.18692,4.47388,9.04846,10.7971,5.42755,8.29315
1.66,9.8175,21.5591,5.25818,0.720214,1.19913,4.47998,9.04694,10.7941,5.42908,8.2901
1.68,9.82361,21.5515,5.2597,0.720214,1.2113399999999999,4.47998,9.04694,10.8002,5.4306,8.29163
1.7,9.80682,21.55,5.26123,0.7141109999999999,1.22507,4.47693,9.04694,10.7971,5.42908,8.29163
1.72,9.80987,21.5485,5.25818,0.720214,1.23728,4.4754,9.04694,10.7941,5.4306,8.29468
1.74,9.80835,21.5378,5.27191,0.7217399999999999,1.24948,4.47845,9.04999,10.7986,5.4306,8.29315
1.76,9.80835,21.5317,5.27191,0.718688,1.26169,4.47845,9.03168,10.7956,5.42755,8.2901
1.78,9.79462,21.524,5.27191,0.717163,1.27542,4.47998,9.03473,10.7956,5.42755,8.30536
1.8,9.80072,21.524,5.27496,0.718688,1.28916,4.4754,9.03473,10.7956,5.42755,8.30383
1.82,9.78241,21.5134,5.26733,0.715637,1.29831,4.47845,9.03473,10.7956,5.42908,8.30383
1.84,9.78851,21.4996,5.27039,0.7141109999999999,1.3135700000000001,4.47845,9.03168,10.7971,5.4306,8.30383
1.86,9.77478,21.4996,5.27191,0.718688,1.32578,4.46472,9.03625,10.7956,5.42755,8.30231
1.88,9.77173,21.4874,5.26886,0.717163,1.33951,4.46625,9.03473,10.7956,5.4306,8.30688
1.9,9.76105,21.4767,5.27039,0.720214,1.34714,4.47388,9.0332,10.7986,5.42908,8.30231
1.92,9.76257,21.4752,5.28259,0.715637,1.34562,4.46472,9.03625,10.7941,5.42908,8.30536
1.94,9.74731,21.463,5.28259,0.718688,1.35935,4.46167,9.03473,10.7956,5.43213,8.30383
1.96,9.74579,21.4508,5.28259,0.720214,1.3730799999999999,4.46625,9.03625,10.7941,5.42908,8.30688
1.98,9.73816,21.4523,5.28259,0.720214,1.38681,4.46472,9.0332,10.790999999999999,5.42755,8.30383
2.0,9.73663,21.4523,5.28717,0.718688,1.38681,4.46472,9.03168,10.7956,5.42908,8.30078
2.02,9.73816,21.4401,5.28564,0.720214,1.39444,4.46472,9.03015,10.7971,5.42908,8.30383
2.04,9.7229,21.4386,5.28259,0.7217399999999999,1.4097,4.46625,9.03778,10.7971,5.42908,8.30536
2.06,9.7229,21.4386,5.28412,0.720214,1.42191,4.46472,9.03473,10.8047,5.4306,8.30231
2.08,9.72137,21.4371,5.28412,0.715637,1.42191,4.46625,9.03625,10.8093,5.4306,8.30536
2.1,9.71374,21.4416,5.28259,0.718688,1.43717,4.46625,9.0332,10.8078,5.42755,8.30536
2.12,9.71069,21.4386,5.28107,0.717163,1.44785,4.46625,9.03473,10.8093,5.42908,8.30383
2.14,9.71069,21.4371,5.28107,0.718688,1.44632,4.46777,9.03473,10.8078,5.42755,8.30383
2.16,9.70001,21.4371,5.28717,0.717163,1.4554799999999999,4.46777,9.03625,10.8093,5.426019999999999,8.30383
2.18,9.70001,21.4371,5.28259,0.718688,1.4661600000000001,4.4693,9.03473,10.8078,5.42908,8.30841
2.2,9.69849,21.4401,5.28259,0.720214,1.4692100000000001,4.46777,9.03625,10.8109,5.42755,8.31757
2.22,9.69849,21.4401,5.28412,0.718688,1.47989,4.46472,9.03473,10.8078,5.42908,8.31604
2.24,9.68628,21.4386,5.28412,0.720214,1.4921,4.46625,9.03625,10.8093,5.42755,8.32062
2.26,9.68475,21.4401,5.28259,0.717163,1.4905700000000002,4.46472,9.03473,10.8124,5.42908,8.31757
2.28,9.6878,21.4523,5.28259,0.715637,1.50888,4.46625,9.02405,10.8063,5.426019999999999,8.31146
2.3,9.68628,21.4508,5.28259,0.718688,1.51041,4.46777,9.021,10.8078,5.4306,8.31604
2.32,9.6756,21.4523,5.28412,0.7141109999999999,1.51804,4.4632,9.021,10.8093,5.42755,8.31451
2.34,9.67407,21.4661,5.28107,0.720214,1.52109,4.46472,9.021,10.8047,5.4306,8.31299
2.36,9.67102,21.463,5.28564,0.720214,1.53482,4.46777,9.01947,10.8093,5.42908,8.31909
2.38,9.6756,21.463,5.28259,0.717163,1.54093,4.46472,9.021,10.8063,5.42908,8.31757
2.4,9.67407,21.4737,5.28564,0.718688,1.54398,4.46625,9.021,10.8109,5.426019999999999,8.31604
2.42,9.6756,21.4767,5.28412,0.7217399999999999,1.55466,4.47235,9.02252,10.8093,5.426019999999999,8.31757
2.44,9.66186,21.4767,5.27496,0.720214,1.55466,4.46777,9.02252,10.8078,5.4245,8.31451
2.46,9.66186,21.4798,5.27191,0.7217399999999999,1.56687,4.46777,9.02252,10.8078,5.42755,8.30383
2.48,9.66492,21.4767,5.27039,0.720214,1.56992,4.46472,9.02557,10.8093,5.42908,8.30536
2.5,9.66339,21.4767,5.27191,0.7217399999999999,1.57755,4.46472,9.01947,10.8109,5.42908,8.30383
2.52,9.66034,21.4767,5.27496,0.717163,1.57907,4.46472,9.02252,10.8063,5.42755,8.30231
2.54,9.65271,21.4752,5.27344,0.718688,1.59281,4.46472,9.02252,10.8093,5.426019999999999,8.30383
2.56,9.64966,21.463,5.27039,0.7217399999999999,1.59128,4.4693,9.02252,10.82,5.42755,8.30383
2.58,9.65118,21.463,5.27191,0.717163,1.6065399999999999,4.46777,9.02252,10.8215,5.42755,8.30383
2.6,9.64966,21.4615,5.27039,0.720214,1.6034899999999999,4.46777,9.021,10.8185,5.42755,8.30383
2.62,9.65271,21.4676,5.2597,0.718688,1.61875,4.46472,9.021,10.8215,5.42908,8.30383
2.64,9.63745,21.4508,5.2597,0.715637,1.61722,4.46777,9.02252,10.8185,5.42908,8.30536
2.66,9.6344,21.4523,5.25818,0.717163,1.6279,4.46472,9.021,10.8215,5.42908,8.30383
2.68,9.63592,21.4523,5.2597,0.720214,1.62943,4.46777,9.021,10.8185,5.42908,8.30536
2.7,9.6344,21.4523,5.24292,0.717163,1.6279,4.46777,9.02405,10.8215,5.426019999999999,8.30383
2.72,9.6344,21.4478,5.2475,0.720214,1.6416400000000002,4.46472,9.02405,10.82,5.42755,8.30383
2.74,9.64203,21.4386,5.2475,0.718688,1.64011,4.46472,9.021,10.8185,5.42908,8.30231
2.76,9.63745,21.434,5.24292,0.7217399999999999,1.64316,4.46625,9.02252,10.8185,5.42908,8.30536
2.78,9.63745,21.4401,5.24597,0.715637,1.65537,4.46625,9.02252,10.82,5.42755,8.30688
2.8,9.6344,21.4371,5.2475,0.717163,1.6538400000000002,4.46625,9.021,10.8215,5.42908,8.30383
2.82,9.6405,21.4371,5.23376,0.717163,1.6538400000000002,4.4693,9.01184,10.817,5.4245,8.30383
2.84,9.63898,21.434,5.23224,0.715637,1.6538400000000002,4.46777,9.01031,10.8185,5.42908,8.30231
2.86,9.63898,21.4264,5.23376,0.7217399999999999,1.6538400000000002,4.46625,9.00726,10.817,5.4306,8.30078
2.88,9.63898,21.4264,5.23529,0.720214,1.66452,4.46472,9.01337,10.8185,5.426019999999999,8.30383
2.9,9.63898,21.4294,5.23682,0.718688,1.66452,4.46625,9.01031,10.8215,5.42908,8.30536
2.92,9.63592,21.4157,5.23224,0.720214,1.663,4.46625,9.00726,10.8215,5.42908,8.30688
2.94,9.6405,21.4157,5.2475,0.717163,1.663,4.47082,9.01031,10.8215,5.42755,8.30231
2.96,9.62372,21.4172,5.24902,0.717163,1.66605,4.46777,9.00879,10.82,5.42908,8.30383
2.98,9.62372,21.401999999999997,5.24445,0.7217399999999999,1.66452,4.46625,9.01337,10.82,5.42908,8.30383
3.0,9.63745,21.405,5.2475,0.715637,1.66605,4.4632,9.01031,10.8215,5.42755,8.30688
3.02,9.63898,21.4005,5.25818,0.718688,1.6797799999999998,4.46777,9.01031,10.82,5.42908,8.30383
3.04,9.63898,21.3913,5.25665,0.720214,1.6797799999999998,4.46472,9.00726,10.8231,5.426019999999999,8.30383
3.06,9.6344,21.3882,5.25513,0.718688,1.6782599999999999,4.46777,9.01031,10.8215,5.42908,8.30536
3.08,9.63745,21.3776,5.27344,0.720214,1.6782599999999999,4.4693,9.00879,10.82,5.42908,8.30383
3.1,9.63898,21.3745,5.27344,0.7141109999999999,1.6797799999999998,4.46472,9.01031,10.8185,5.42755,8.30536
3.12,9.63745,21.3669,5.27649,0.718688,1.6767299999999998,4.46777,9.01031,10.8261,5.426019999999999,8.30383
3.14,9.63745,21.3531,5.28259,0.718688,1.6797799999999998,4.46625,9.00726,10.817,5.42908,8.30078
3.16,9.64966,21.3455,5.28107,0.720214,1.6752099999999999,4.46625,9.01184,10.8185,5.43976,8.30231
3.18,9.65118,21.3272,5.28259,0.7278439999999999,1.6782599999999999,4.46472,9.01031,10.8231,5.44128,8.30536
3.2,9.65576,21.315,5.29327,0.715637,1.6767299999999998,4.46625,9.01031,10.82,5.43976,8.30383
3.22,9.64813,21.3028,5.29785,0.717163,1.6782599999999999,4.46777,9.00879,10.82,5.44128,8.30536
3.24,9.66186,21.2921,5.29327,0.715637,1.6782599999999999,4.46625,9.01031,10.8215,5.44128,8.30231
3.26,9.66186,21.2906,5.30853,0.7217399999999999,1.6797799999999998,4.46625,9.01031,10.8185,5.44281,8.30078
3.28,9.66186,21.2799,5.30701,0.715637,1.6904599999999999,4.4693,9.00879,10.8231,5.44128,8.30231
3.3,9.67255,21.2662,5.30395,0.715637,1.6874099999999999,4.46625,9.00879,10.8215,5.44281,8.30536
3.32,9.6756,21.2555,5.31921,0.718688,1.6874099999999999,4.46472,8.99811,10.82,5.44128,8.30383
3.34,9.6878,21.2402,5.32074,0.718688,1.68894,4.46625,8.99811,10.8215,5.43976,8.30383
3.36,9.68628,21.2418,5.31921,0.720214,1.68894,4.4693,8.99963,10.8231,5.44128,8.30536
3.38,9.69696,21.2311,5.33447,0.717163,1.68894,4.46777,8.99353,10.8185,5.43823,8.30383
3.4,9.70001,21.2219,5.33142,0.720214,1.6874099999999999,4.46777,8.99658,10.8215,5.43976,8.30231
3.42,9.71222,21.2204,5.32989,0.7217399999999999,1.68894,4.46625,8.99353,10.8185,5.43823,8.30383
3.44,9.7229,21.2067,5.34668,0.715637,1.6874099999999999,4.46625,8.99658,10.8154,5.44128,8.30688
3.46,9.73511,21.2051,5.3421,0.718688,1.6996200000000001,4.46777,8.99811,10.82,5.44281,8.30688
3.48,9.74884,21.1945,5.34668,0.720214,1.70115,4.46625,8.99658,10.8185,5.44434,8.30383
3.5,9.7702,21.1929,5.34668,0.7217399999999999,1.7042,4.46472,8.99506,10.8185,5.44434,8.30383
3.52,9.78546,21.1807,5.3421,0.7278439999999999,1.7026700000000001,4.46625,8.99811,10.8215,5.45349,8.30383
3.54,9.79767,21.17,5.35889,0.732421,1.7042,4.46777,8.99811,10.8185,5.455019999999999,8.30231
3.56,9.82361,21.1685,5.35583,0.718688,1.7042,4.46625,8.99811,10.817,5.45349,8.30231
3.58,9.83276,21.1578,5.35736,0.717163,1.7026700000000001,4.4693,8.99963,10.8246,5.45044,8.30688
3.6,9.85718,21.1517,5.35583,0.718688,1.7026700000000001,4.46625,8.99658,10.817,5.45044,8.30231
3.62,9.87091,21.1426,5.35889,0.730895,1.7026700000000001,4.46472,8.99658,10.8231,5.455019999999999,8.30536
3.64,9.89532,21.1441,5.35889,0.720214,1.7026700000000001,4.46625,8.992,10.8215,5.45044,8.30383
3.66,9.91363,21.1319,5.35736,0.7217399999999999,1.7026700000000001,4.4693,8.99811,10.8215,5.455019999999999,8.30536
3.68,9.928889999999999,21.1349,5.371090000000001,0.7217399999999999,1.70725,4.46014,8.99658,10.8185,5.45349,8.30536
3.7,9.95636,21.1197,5.368040000000001,0.72937,1.70115,4.45404,8.99811,10.8215,5.45196,8.30231
3.72,9.98077,21.1197,5.3665199999999995,0.72937,1.7026700000000001,4.45099,8.99963,10.8215,5.455019999999999,8.30078
3.74,10.0037,21.1075,5.368040000000001,0.730895,1.70115,4.45404,8.99963,10.8215,5.45044,8.30231
3.76,10.0265,21.1075,5.3695699999999995,0.730895,1.7026700000000001,4.45251,8.9859,10.82,5.455019999999999,8.30688
3.78,10.054,21.0968,5.368040000000001,0.72937,1.70115,4.45709,8.98285,10.8215,5.45349,8.30231
3.8,10.0906,21.0846,5.3695699999999995,0.730895,1.70115,4.45404,8.98743,10.82,5.45196,8.30536
3.82,10.1151,21.0831,5.35583,0.730895,1.70115,4.45404,8.98285,10.82,5.44891,8.30536
3.84,10.1349,21.0693,5.35889,0.730895,1.7026700000000001,4.45251,8.98285,10.8215,5.45196,8.30688
3.86,10.173,21.0587,5.35736,0.732421,1.69809,4.45709,8.98743,10.8246,5.45196,8.30536
3.88,10.202,21.0434,5.35736,0.732421,1.70115,4.45557,8.9859,10.8185,5.45196,8.30231
3.9,10.2249,21.0358,5.35583,0.726318,1.70115,4.45251,8.98437,10.8231,5.455019999999999,8.30536
3.92,10.2585,21.0129,5.35431,0.72937,1.7042,4.45404,8.9859,10.82,5.455019999999999,8.30688
3.94,10.2844,20.9976,5.35583,0.730895,1.70115,4.44946,8.9859,10.8231,5.45349,8.30536
3.96,10.3088,20.9976,5.35583,0.72937,1.7026700000000001,4.45404,8.98437,10.82,5.45654,8.30536
3.98,10.3455,20.9839,5.34515,0.732421,1.6996200000000001,4.45557,8.9859,10.8215,5.45196,8.30841
4.0,10.3699,20.9732,5.34363,0.7278439999999999,1.6996200000000001,4.45404,8.9859,10.8215,5.45044,8.30536
4.02,10.4065,20.964000000000002,5.34515,0.733947,1.70115,4.45557,8.98743,10.8215,5.45196,8.30383
4.04,10.4294,20.9625,5.34515,0.730895,1.7026700000000001,4.45404,8.98437,10.8215,5.45044,8.30383
4.06,10.4584,20.9488,5.34668,0.733947,1.70115,4.45251,8.98895,10.8215,5.45196,8.30536
4.08,10.4935,20.9396,5.34515,0.730895,1.7026700000000001,4.45557,8.98437,10.8185,5.45654,8.30383
4.1,10.5194,20.9351,5.35736,0.730895,1.70115,4.45709,8.9859,10.82,5.45196,8.30536
4.12,10.5408,20.9244,5.35889,0.730895,1.6996200000000001,4.45251,8.9859,10.8231,5.45044,8.30231
4.14,10.5682,20.9213,5.35126,0.730895,1.70115,4.45404,8.98743,10.817,5.45196,8.30383
4.16,10.5927,20.9106,5.35889,0.72937,1.70115,4.45709,8.98437,10.817,5.45196,8.30841
4.18,10.6171,20.9122,5.368040000000001,0.732421,1.7026700000000001,4.45404,8.98437,10.8215,5.45349,8.30231
4.2,10.6384,20.903000000000002,5.368040000000001,0.72937,1.7042,4.45404,8.98285,10.8231,5.455019999999999,8.30383
4.22,10.6628,20.8969,5.371090000000001,0.732421,1.6996200000000001,4.44946,8.98743,10.8246,5.45196,8.30078
4.24,10.6873,20.8954,5.368040000000001,0.7278439999999999,1.7042,4.45557,8.98437,10.82,5.45349,8.30383
