time(s),200436,100034,110396,100035,100041,100382,100045,100042,100044,100046
0.0,18.9239,5.00641,5.416869999999999,3.81775,6.32477,5.63354,0.767517,8.010860000000001,13.0981,0.631713
0.02,18.9453,5.00488,5.416869999999999,3.8223300000000004,6.32324,5.63202,0.770568,7.9956,13.120999999999999,0.6347649999999999
0.04,18.9713,5.00641,5.4153400000000005,3.8208,6.32324,5.63507,0.770568,7.9956,13.1317,0.6362909999999999
0.06,19.0063,5.00488,5.416869999999999,3.8223300000000004,6.32324,5.62897,0.770568,8.00018,13.1577,0.6347649999999999
0.08,19.0353,5.00488,5.4184,3.8162199999999995,6.32172,5.63202,0.769042,7.9834,13.1683,0.6362909999999999
0.1,19.0536,5.00793,5.413819999999999,3.81775,6.32172,5.63354,0.769042,7.98492,13.1927,0.6347649999999999
0.12,19.0826,5.0003,5.4306,3.81775,6.32782,5.63202,0.77362,7.9834,13.2126,0.637817
0.14,19.1162,5.00336,5.42908,3.8192699999999995,6.32172,5.63202,0.772094,7.9834,13.2294,0.6347649999999999
0.16,19.1437,5.00488,5.4306,3.8208,6.32477,5.63202,0.770568,7.98645,13.2446,0.6362909999999999
0.18,19.165,5.00488,5.42908,3.8208,6.32324,5.62897,0.770568,7.971189999999999,13.269,0.6362909999999999
0.2,19.2001,5.00488,5.4306,3.8192699999999995,6.32477,5.63354,0.769042,7.971189999999999,13.2812,0.633239
0.22,19.2245,5.00488,5.4306,3.8162199999999995,6.3095099999999995,5.63354,0.769042,7.97577,13.3041,0.633239
0.24,19.249000000000002,5.00641,5.43213,3.81775,6.31409,5.62286,0.772094,7.97272,13.3163,0.6347649999999999
0.26,19.2734,5.00488,5.42908,3.8208,6.311030000000001,5.62286,0.769042,7.95898,13.3423,0.6347649999999999
0.28,19.3008,5.00641,5.43213,3.8192699999999995,6.31409,5.62134,0.769042,7.95898,13.353,0.6347649999999999
0.3,19.3253,5.00641,5.44128,3.82385,6.3095099999999995,5.62286,0.770568,7.95746,13.3759,0.633239
0.32,19.3451,5.00336,5.43823,3.8192699999999995,6.3125599999999995,5.62286,0.772094,7.95898,13.3881,0.6362909999999999
0.34,19.371,5.00336,5.44434,3.8208,6.311030000000001,5.61981,0.769042,7.94525,13.4171,0.6347649999999999
0.36,19.397000000000002,5.00336,5.44128,3.8208,6.31409,5.62134,0.769042,7.94983,13.4262,0.639343
0.38,19.4199,5.00336,5.43823,3.81775,6.311030000000001,5.61981,0.769042,7.94678,13.4537,0.6362909999999999
0.4,19.4443,5.00641,5.44586,3.81775,6.31409,5.61829,0.772094,7.94983,13.4644,0.637817
0.42,19.4595,5.00183,5.43976,3.81775,6.3125599999999995,5.62134,0.772094,7.94678,13.4918,0.6347649999999999
0.44,19.4855,5.00793,5.45349,3.81775,6.311030000000001,5.61981,0.769042,7.9361,13.4995,0.639343
0.46,19.5053,5.00183,5.45349,3.8192699999999995,6.311030000000001,5.61981,0.769042,7.9361,13.5223,0.633239
0.48,19.516,5.00336,5.45349,3.8192699999999995,6.307980000000001,5.62286,0.770568,7.9361,13.5406,0.6347649999999999
0.5,19.5465,5.00183,5.45349,3.8192699999999995,6.3125599999999995,5.61981,0.772094,7.926939999999999,13.5468,0.637817
0.52,19.5679,5.00488,5.45349,3.8192699999999995,6.3125599999999995,5.62134,0.770568,7.920839999999999,13.5742,0.633239
0.54,19.5816,5.00793,5.45349,3.8192699999999995,6.3095099999999995,5.61981,0.767517,7.92236,13.5834,0.6362909999999999
0.56,19.5938,5.00336,5.455019999999999,3.81775,6.3095099999999995,5.61981,0.769042,7.9086300000000005,13.5986,0.6347649999999999
0.58,19.6045,5.00641,5.455019999999999,3.8208,6.3095099999999995,5.61981,0.770568,7.9116800000000005,13.6108,0.6347649999999999
0.6,19.6167,5.00488,5.464169999999999,3.81775,6.3095099999999995,5.61981,0.772094,7.91321,13.6246,0.6362909999999999
0.62,19.6274,5.00488,5.464169999999999,3.8162199999999995,6.311030000000001,5.61676,0.770568,7.9116800000000005,13.6475,0.633239
0.64,19.6426,5.00183,5.46265,3.8223300000000004,6.3095099999999995,5.61981,0.767517,7.89795,13.6612,0.633239
0.66,19.6548,5.00183,5.467219999999999,3.8192699999999995,6.3125599999999995,5.62286,0.770568,7.89795,13.6749,0.633239
0.68,19.6655,4.99268,5.4657,3.81775,6.307980000000001,5.62134,0.770568,7.89795,13.6841,0.633239
0.7,19.664,4.9896199999999995,5.464169999999999,3.81775,6.307980000000001,5.61829,0.769042,7.89642,13.7085,0.637817
0.72,19.6762,4.99573,5.4779,3.8192699999999995,6.3156099999999995,5.61981,0.772094,7.89032,13.7222,0.631713
0.74,19.6884,4.99268,5.476380000000001,3.8208,6.32172,5.61829,0.769042,7.89032,13.7344,0.637817
0.76,19.6869,4.99268,5.479430000000001,3.8162199999999995,6.32172,5.62134,0.769042,7.873530000000001,13.7573,0.637817
0.78,19.7021,4.99268,5.49164,3.8223300000000004,6.32477,5.62134,0.767517,7.87506,13.7695,0.6362909999999999
0.8,19.7128,4.99115,5.49011,3.81775,6.32324,5.62286,0.767517,7.87506,13.7848,0.639343
0.82,19.7144,4.99573,5.48859,3.81775,6.32324,5.62439,0.767517,7.87506,13.7939,0.637817
0.84,19.7281,4.99268,5.48706,3.8208,6.32477,5.61829,0.770568,7.861330000000001,13.8092,0.639343
0.86,19.7311,4.99573,5.49927,3.8192699999999995,6.32477,5.61981,0.772094,7.86285,13.8199,0.6362909999999999
0.88,19.7281,4.99268,5.50384,3.8162199999999995,6.32324,5.62134,0.770568,7.861330000000001,13.829,0.633239
0.9,19.7418,4.9942,5.50384,3.81775,6.32477,5.62286,0.769042,7.85217,13.8458,0.6362909999999999
0.92,19.7403,4.9942,5.50079,3.8208,6.32477,5.61981,0.772094,7.84912,13.855,0.6347649999999999
0.94,19.7418,4.99573,5.50384,3.82385,6.32172,5.61981,0.770568,7.85065,13.8641,0.6362909999999999
0.96,19.7372,4.99268,5.51605,3.8208,6.32324,5.61829,0.769042,7.85065,13.8809,0.639343
0.98,19.7403,4.99573,5.51147,3.8223300000000004,6.32172,5.62134,0.772094,7.84912,13.8916,0.633239
1.0,19.7388,4.9942,5.513,3.8208,6.33392,5.61981,0.769042,7.838439999999999,13.9038,0.6347649999999999
1.02,19.7403,4.99268,5.51605,3.81775,6.33545,5.61981,0.772094,7.8369100000000005,13.9206,0.6362909999999999
1.04,19.7403,4.99115,5.523680000000001,3.8223300000000004,6.3324,5.62286,0.767517,7.8338600000000005,13.9282,0.637817
1.06,19.7357,4.9896199999999995,5.5313099999999995,3.8192699999999995,6.33392,5.61829,0.767517,7.8369100000000005,13.9404,0.6362909999999999
1.08,19.7372,4.9942,5.5282599999999995,3.8162199999999995,6.33545,5.61981,0.770568,7.8247100000000005,13.9542,0.631713
1.1,19.7388,4.99115,5.526730000000001,3.80554,6.33392,5.61676,0.770568,7.8247100000000005,13.9618,0.631713
1.12,19.7403,4.99268,5.529780000000001,3.8040199999999995,6.33697,5.61981,0.772094,7.826230000000001,13.9633,0.6362909999999999
1.14,19.7388,4.99115,5.53894,3.8040199999999995,6.33392,5.61981,0.769042,7.826230000000001,13.9786,0.6362909999999999
1.16,19.7296,4.9896199999999995,5.54047,3.8162199999999995,6.347659999999999,5.61981,0.770568,7.826230000000001,13.9908,0.6362909999999999
1.18,19.7266,4.9942,5.53894,3.81775,6.3446,5.61829,0.772094,7.8125,13.9923,0.6362909999999999
1.2,19.7281,5.00336,5.54047,3.8070699999999995,6.347659999999999,5.62134,0.767517,7.8125,13.9999,0.631713
1.22,19.7144,5.00641,5.54047,3.8101199999999995,6.3461300000000005,5.62134,0.770568,7.814030000000001,14.0152,0.6347649999999999
1.24,19.7159,5.00488,5.55267,3.8070699999999995,6.3461300000000005,5.62286,0.769042,7.814030000000001,14.0274,0.6362909999999999
1.26,19.7144,5.00488,5.55115,3.80859,6.36139,5.61829,0.770568,7.810969999999999,14.0289,0.633239
1.28,19.7037,5.00793,5.55115,3.80554,6.35986,5.61981,0.767517,7.8125,14.0411,0.6347649999999999
1.3,19.7006,5.0003,5.55115,3.80554,6.35834,5.61676,0.769042,7.8033399999999995,14.0503,0.633239
1.32,19.7037,5.00488,5.5648800000000005,3.8070699999999995,6.35986,5.61829,0.775146,7.798769999999999,14.0656,0.6347649999999999
1.34,19.6884,5.00641,5.566409999999999,3.8070699999999995,6.35681,5.63507,0.769042,7.801819999999999,14.0656,0.6347649999999999
1.36,19.692999999999998,5.00336,5.5603,3.8223300000000004,6.37054,5.63354,0.77362,7.801819999999999,14.0762,0.633239
1.38,19.692999999999998,5.00488,5.56335,3.8040199999999995,6.37054,5.63507,0.770568,7.801819999999999,14.0869,0.6347649999999999
1.4,19.6777,5.00488,5.57556,3.8070699999999995,6.37054,5.63507,0.772094,7.786560000000001,14.0869,0.633239
1.42,19.6777,5.00336,5.57404,3.8070699999999995,6.36749,5.63202,0.77362,7.7880899999999995,14.0991,0.6347649999999999
1.44,19.6671,5.00488,5.57251,3.80859,6.37054,5.63507,0.772094,7.7911399999999995,14.1098,0.637817
1.46,19.6548,5.00641,5.57709,3.8070699999999995,6.37512,5.63507,0.769042,7.7880899999999995,14.1113,0.6347649999999999
1.48,19.6548,5.00641,5.58929,3.80859,6.3858,5.63354,0.769042,7.7774,14.122,0.633239
1.5,19.6411,5.00336,5.58929,3.80859,6.38733,5.63202,0.770568,7.7774,14.122,0.6362909999999999
1.52,19.6259,5.00946,5.58929,3.8101199999999995,6.38275,5.63354,0.770568,7.7774,14.1327,0.6347649999999999
1.54,19.6289,5.0170900000000005,5.58929,3.80554,6.38733,5.63354,0.772094,7.76215,14.1388,0.6347649999999999
1.56,19.6136,5.01556,5.58929,3.80859,6.39801,5.63507,0.770568,7.763669999999999,14.1495,0.631713
1.58,19.605999999999998,5.0170900000000005,5.6015,3.8070699999999995,6.39954,5.63202,0.769042,7.763669999999999,14.1617,0.6362909999999999
1.6,19.602999999999998,5.018619999999999,5.59845,3.80859,6.41022,5.63507,0.767517,7.75604,14.1617,0.6362909999999999
1.62,19.5877,5.0170900000000005,5.60303,3.8101199999999995,6.41022,5.63507,0.769042,7.75299,14.1724,0.633239
1.64,19.5786,5.01556,5.6015,3.8070699999999995,6.41174,5.63049,0.769042,7.751460000000001,14.1739,0.637817
1.66,19.5801,5.01556,5.59998,3.8040199999999995,6.41022,5.63202,0.770568,7.75299,14.1861,0.6362909999999999
1.68,19.5694,5.01556,5.61066,3.8070699999999995,6.42242,5.63507,0.770568,7.742310000000001,14.1953,0.631713
1.7,19.5557,5.0293,5.61218,3.8070699999999995,6.41785,5.63202,0.772094,7.739260000000001,14.1998,0.6362909999999999
1.72,19.5404,5.027769999999999,5.61066,3.80859,6.4209,5.63354,0.770568,7.74078,14.2136,0.6347649999999999
1.74,19.5312,5.0262400000000005,5.61371,3.8070699999999995,6.4331,5.63202,0.770568,7.74078,14.2212,0.6347649999999999
1.76,19.5297,5.0293,5.60913,3.80859,6.43463,5.63354,0.769042,7.72705,14.2227,0.633239
1.78,19.519000000000002,5.0262400000000005,5.62439,3.80859,6.43463,5.63202,0.772094,7.72705,14.2334,0.6362909999999999
1.8,19.5038,5.0293,5.62134,3.8101199999999995,6.43158,5.63049,0.770568,7.7301,14.2349,0.6347649999999999
1.82,19.4946,5.04303,5.62439,3.8070699999999995,6.44379,5.62897,0.770568,7.7301,14.2487,0.6347649999999999
1.84,19.4824,5.03845,5.62591,3.8070699999999995,6.44531,5.63202,0.770568,7.72858,14.2487,0.6347649999999999
1.86,19.4824,5.03998,5.62286,3.8070699999999995,6.44379,5.6366,0.769042,7.71789,14.2502,0.637817
1.88,19.4672,5.0415,5.63965,3.80554,6.45904,5.63507,0.770568,7.71179,14.2471,0.6347649999999999
1.9,19.4595,5.04303,5.63965,3.80554,6.45904,5.63049,0.772094,7.7163699999999995,14.2624,0.633239
1.92,19.4443,5.05218,5.63812,3.8101199999999995,6.45904,5.6366,0.769042,7.7194199999999995,14.2609,0.633239
1.94,19.4443,5.05524,5.63812,3.8040199999999995,6.45904,5.63507,0.77362,7.704160000000001,14.2609,0.637817
1.96,19.4351,5.05371,5.63812,3.8070699999999995,6.45904,5.63354,0.772094,7.704160000000001,14.2578,0.6362909999999999
1.98,19.429000000000002,5.05218,5.63812,3.8070699999999995,6.46973,5.63202,0.772094,7.70264,14.2593,0.637817
2.0,19.4183,5.05371,5.65185,3.8040199999999995,6.47125,5.63202,0.772094,7.70264,14.2609,0.6362909999999999
2.02,19.4092,5.065919999999999,5.65185,3.8040199999999995,6.47125,5.63202,0.775146,7.704160000000001,14.2731,0.637817
2.04,19.4061,5.06439,5.6488,3.8040199999999995,6.46973,5.63202,0.770568,7.69043,14.2731,0.6362909999999999
2.06,19.397000000000002,5.065919999999999,5.64728,3.80859,6.4682,5.63202,0.769042,7.69043,14.2715,0.6347649999999999
2.08,19.3878,5.065919999999999,5.64728,3.8070699999999995,6.48498,5.63354,0.770568,7.69195,14.2731,0.6347649999999999
2.1,19.3802,5.075069999999999,5.65033,3.8070699999999995,6.48346,5.63507,0.767517,7.69195,14.2715,0.6347649999999999
2.12,19.3726,5.0766,5.65948,3.80859,6.48041,5.63507,0.772094,7.69348,14.2746,0.6347649999999999
2.14,19.3695,5.07965,5.66101,3.8070699999999995,6.48346,5.63507,0.772094,7.67975,14.27,0.633239
2.16,19.3604,5.07965,5.66254,3.8070699999999995,6.48346,5.63354,0.769042,7.67822,14.27,0.6362909999999999
2.18,19.3619,5.08881,5.66406,3.8070699999999995,6.48041,5.63354,0.767517,7.6767,14.2715,0.6347649999999999
2.2,19.3451,5.09186,5.66406,3.80554,6.48346,5.63354,0.772094,7.67975,14.2731,0.633239
2.22,19.3466,5.090330000000001,5.66254,3.8070699999999995,6.48346,5.63049,0.770568,7.67822,14.2715,0.633239
2.24,19.3359,5.087280000000001,5.67474,3.8070699999999995,6.49261,5.63202,0.772094,7.66449,14.27,0.6347649999999999
2.26,19.3359,5.096430000000001,5.67627,3.80554,6.49109,5.63049,0.77362,7.666010000000001,14.2746,0.6362909999999999
2.28,19.3268,5.10254,5.67627,3.80859,6.49414,5.63354,0.769042,7.66754,14.2731,0.6362909999999999
2.3,19.3253,5.10101,5.67932,3.8070699999999995,6.49261,5.63507,0.77362,7.656860000000001,14.2715,0.6362909999999999
2.32,19.3115,5.09949,5.67627,3.80859,6.49414,5.63202,0.772094,7.65228,14.2731,0.633239
2.34,19.313,5.11017,5.67322,3.80859,6.49567,5.63507,0.772094,7.653810000000001,14.27,0.6347649999999999
2.36,19.2993,5.11475,5.68542,3.80554,6.49567,5.63354,0.772094,7.6416,14.2731,0.6362909999999999
2.38,19.2871,5.11475,5.68695,3.80859,6.49567,5.63507,0.769042,7.6416,14.2746,0.631713
2.4,19.2871,5.11322,5.6839,3.80554,6.49567,5.63354,0.769042,7.63855,14.2731,0.6362909999999999
2.42,19.2764,5.1239,5.68695,3.8070699999999995,6.49719,5.63354,0.769042,7.626339999999999,14.2853,0.6347649999999999
2.44,19.2764,5.125430000000001,5.68695,3.80859,6.49567,5.63202,0.765991,7.62787,14.2868,0.6347649999999999
2.46,19.2596,5.12237,5.68695,3.8070699999999995,6.50635,5.63354,0.767517,7.63245,14.2868,0.633239
2.48,19.2596,5.12695,5.69763,3.80554,6.51092,5.63202,0.770568,7.617189999999999,14.2838,0.6347649999999999
2.5,19.2505,5.134580000000001,5.69916,3.8070699999999995,6.50635,5.63507,0.767517,7.620239999999999,14.2822,0.637817
2.52,19.249000000000002,5.137630000000001,5.69458,3.8070699999999995,6.5033,5.63202,0.767517,7.606510000000001,14.2853,0.6347649999999999
2.54,19.2368,5.14069,5.69611,3.80554,6.50635,5.63354,0.770568,7.60345,14.2838,0.6347649999999999
2.56,19.2307,5.1391599999999995,5.70068,3.8070699999999995,6.50635,5.63049,0.770568,7.606510000000001,14.2883,0.6347649999999999
2.58,19.2291,5.1361099999999995,5.70831,3.80554,6.51092,5.63202,0.769042,7.60498,14.2853,0.6362909999999999
2.6,19.2154,5.14069,5.71136,3.80859,6.50635,5.63507,0.770568,7.59582,14.2838,0.6362909999999999
2.62,19.2154,5.15137,5.70984,3.80859,6.50635,5.63354,0.77362,7.5943,14.2838,0.6347649999999999
2.64,19.1986,5.1483099999999995,5.71136,3.80859,6.50787,5.63354,0.765991,7.59125,14.2853,0.6347649999999999
2.66,19.2001,5.1483099999999995,5.71136,3.80859,6.50635,5.63354,0.769042,7.58972,14.2838,0.6362909999999999
2.68,19.1895,5.14984,5.70831,3.8070699999999995,6.5094,5.63507,0.772094,7.582089999999999,14.2853,0.6347649999999999
2.7,19.1879,5.14984,5.72357,3.8101199999999995,6.5033,5.63049,0.772094,7.582089999999999,14.2853,0.633239
2.72,19.1772,5.1483099999999995,5.72815,3.8070699999999995,6.50635,5.63354,0.772094,7.579039999999999,14.2853,0.6362909999999999
2.74,19.1742,5.16357,5.71899,3.8070699999999995,6.50482,5.63354,0.769042,7.58362,14.2853,0.6347649999999999
2.76,19.1772,5.16357,5.7251,3.80859,6.50635,5.63354,0.77362,7.582089999999999,14.2838,0.633239
2.78,19.1681,5.16357,5.72357,3.80249,6.50635,5.63202,0.772094,7.56683,14.2868,0.6347649999999999
2.8,19.165,5.16205,5.72205,3.80859,6.5094,5.63049,0.77362,7.57446,14.2868,0.6347649999999999
2.82,19.1544,5.16357,5.73883,3.80554,6.50635,5.62897,0.770568,7.56836,14.27,0.637817
2.84,19.1559,5.16205,5.73425,3.80249,6.50482,5.6366,0.770568,7.56683,14.27,0.6347649999999999
2.86,19.1498,5.1666300000000005,5.7373,3.8070699999999995,6.50635,5.63354,0.767517,7.56836,14.2746,0.6362909999999999
2.88,19.1406,5.1727300000000005,5.73425,3.80859,6.50787,5.63354,0.770568,7.56836,14.2715,0.6362909999999999
2.9,19.1376,5.177309999999999,5.73425,3.80859,6.50787,5.63202,0.769042,7.55615,14.2715,0.637817
2.92,19.1406,5.1757800000000005,5.73425,3.8070699999999995,6.5094,5.63354,0.769042,7.56073,14.2609,0.6362909999999999
2.94,19.1299,5.18494,5.74646,3.8040199999999995,6.50635,5.63049,0.769042,7.55463,14.2624,0.6347649999999999
2.96,19.1299,5.18799,5.75104,3.80554,6.5094,5.63202,0.770568,7.55463,14.2563,0.6362909999999999
2.98,19.1299,5.1818800000000005,5.74951,3.8101199999999995,6.50482,5.63507,0.770568,7.55463,14.2593,0.6347649999999999
3.0,19.1193,5.18646,5.74646,3.8101199999999995,6.5094,5.63202,0.767517,7.543939999999999,14.2593,0.6362909999999999
3.02,19.1177,5.18646,5.74646,3.8070699999999995,6.50635,5.63507,0.765991,7.54242,14.2502,0.6362909999999999
3.04,19.1177,5.18646,5.7617199999999995,3.8070699999999995,6.50482,5.63202,0.765991,7.54547,14.2487,0.637817
3.06,19.1101,5.18646,5.7586699999999995,3.8101199999999995,6.50482,5.63507,0.772094,7.53326,14.2471,0.6347649999999999
3.08,19.1055,5.19867,5.7586699999999995,3.80859,6.5094,5.63354,0.769042,7.531739999999999,14.2471,0.637817
3.1,19.104,5.19562,5.7617199999999995,3.8070699999999995,6.5094,5.63354,0.769042,7.53326,14.2487,0.6347649999999999
3.12,19.0933,5.19867,5.760190000000001,3.8070699999999995,6.50635,5.63202,0.770568,7.518,14.2502,0.6362909999999999
3.14,19.0964,5.19562,5.77393,3.8040199999999995,6.50635,5.63202,0.769042,7.5164800000000005,14.2349,0.6362909999999999
3.16,19.0964,5.20019,5.7708699999999995,3.80859,6.50787,5.63354,0.769042,7.52106,14.2364,0.6347649999999999
3.18,19.0826,5.19562,5.77393,3.8040199999999995,6.50787,5.63202,0.770568,7.50885,14.2364,0.633239
3.2,19.0826,5.20019,5.7708699999999995,3.80859,6.50787,5.6366,0.769042,7.50427,14.2334,0.6362909999999999
3.22,19.0781,5.20172,5.78613,3.80554,6.50482,5.63354,0.769042,7.50732,14.2349,0.6347649999999999
3.24,19.0674,5.20019,5.78613,3.8070699999999995,6.5033,5.63507,0.772094,7.5058,14.2364,0.645446
3.26,19.0704,5.19867,5.78461,3.80554,6.50635,5.63354,0.769042,7.5103800000000005,14.2319,0.6362909999999999
3.28,19.0689,5.20172,5.79681,3.8101199999999995,6.50787,5.63507,0.769042,7.49206,14.2212,0.6347649999999999
3.3,19.0567,5.2124,5.799869999999999,3.80554,6.50787,5.63354,0.770568,7.496639999999999,14.2212,0.646972
3.32,19.0567,5.21088,5.79376,3.8040199999999995,6.50482,5.63507,0.772094,7.49512,14.2242,0.6347649999999999
3.34,19.0567,5.2124,5.812069999999999,3.8070699999999995,6.50635,5.63507,0.769042,7.496639999999999,14.2227,0.6362909999999999
3.36,19.046,5.20935,5.812069999999999,3.80859,6.50482,5.63354,0.770568,7.48291,14.2227,0.631713
3.38,19.0414,5.20935,5.809019999999999,3.80554,6.50635,5.63354,0.770568,7.481380000000001,14.209000000000001,0.6362909999999999
3.4,19.0445,5.2124,5.809019999999999,3.81164,6.50787,5.63507,0.770568,7.48596,14.209000000000001,0.6484979999999999
3.42,19.0445,5.20935,5.8197,3.8070699999999995,6.51092,5.63507,0.767517,7.481380000000001,14.212,0.6347649999999999
3.44,19.0338,5.20935,5.82123,3.80859,6.50787,5.63202,0.770568,7.4707,14.212,0.6500239999999999
3.46,19.0323,5.22308,5.8197,3.8101199999999995,6.50787,5.63049,0.770568,7.4707,14.1983,0.646972
3.48,19.0323,5.22308,5.82123,3.80859,6.50635,5.63354,0.767517,7.469180000000001,14.1983,0.6484979999999999
3.5,19.0292,5.22613,5.82123,3.8070699999999995,6.50635,5.63354,0.764465,7.472230000000001,14.1968,0.631713
3.52,19.0201,5.22308,5.82123,3.80859,6.50482,5.63507,0.772094,7.472230000000001,14.1968,0.6347649999999999
3.54,19.0186,5.22156,5.83496,3.80554,6.50635,5.63202,0.769042,7.4585,14.1998,0.646972
3.56,19.0201,5.23682,5.83496,3.80554,6.51092,5.63202,0.769042,7.46002,14.1876,0.637817
3.58,19.0201,5.23987,5.83343,3.8070699999999995,6.50635,5.63202,0.769042,7.45697,14.1846,0.6347649999999999
3.6,19.0033,5.23682,5.83343,3.80554,6.50635,5.63354,0.769042,7.4585,14.183,0.6484979999999999
3.62,19.0079,5.23682,5.84564,3.8070699999999995,6.50635,5.6366,0.770568,7.45697,14.1846,0.6439199999999999
3.64,19.0048,5.25055,5.847169999999999,3.80859,6.51092,5.63354,0.765991,7.45697,14.1876,0.646972
3.66,19.0094,5.24597,5.84564,3.80554,6.49567,5.63354,0.769042,7.4478100000000005,14.1724,0.6484979999999999
3.68,18.9911,5.25818,5.84869,3.80859,6.49414,5.63202,0.770568,7.446289999999999,14.1754,0.6362909999999999
