time(s),100254,110422,200387,100256,100252,100257,100255,100251,100454,100453
0.0,12.4634,12.3978,9.3277,3.49884,11.1923,0.813293,4.31976,0.739841,17.2211,7.5225800000000005
0.02,12.470999999999998,12.3993,9.32465,3.49884,11.2,0.817871,4.31824,0.735264,17.2165,7.52411
0.04,12.4725,12.4023,9.32922,3.5003699999999998,11.2045,0.814819,4.31824,0.723057,17.218,7.52106
0.06,12.470999999999998,12.4115,9.3277,3.50189,11.2,0.814819,4.31976,0.723057,17.218,7.5225800000000005
0.08,12.4863,12.413,9.3277,3.50189,11.203,0.814819,4.31824,0.723057,17.2195,7.52411
0.1,12.4939,12.4146,9.32922,3.5034199999999998,11.203,0.814819,4.31824,0.724583,17.2043,7.5256300000000005
0.12,12.5061,12.4084,9.32465,3.50189,11.203,0.816345,4.315180000000001,0.724583,17.2089,7.52106
0.14,12.5092,12.413,9.3277,3.5003699999999998,11.2045,0.813293,4.31824,0.713901,17.2089,7.5225800000000005
0.16,12.5259,12.4222,9.3277,3.5003699999999998,11.2,0.816345,4.31824,0.71085,17.1967,7.5225800000000005
0.18,12.5351,12.4237,9.32617,3.5003699999999998,11.2015,0.817871,4.31976,0.713901,17.1982,7.5103800000000005
0.2,12.5458,12.4329,9.3277,3.5003699999999998,11.2,0.817871,4.31671,0.71085,17.1829,7.50732
0.22,12.5595,12.4374,9.3277,3.49884,11.2045,0.816345,4.31671,0.715427,17.186,7.5119
0.24,12.5687,12.4359,9.33075,3.5003699999999998,11.2045,0.814819,4.31824,0.7016939999999999,17.1722,7.5119
0.26,12.5839,12.4481,9.32922,3.50189,11.1984,0.814819,4.31824,0.698643,17.1753,7.5119
0.28,12.5977,12.4481,9.32617,3.4896800000000003,11.203,0.817871,4.31976,0.698643,17.1722,7.5119
0.3,12.6068,12.4603,9.32465,3.4881599999999997,11.1893,0.8193959999999999,4.31671,0.70322,17.16,7.50885
0.32,12.6205,12.4573,9.32922,3.4896800000000003,11.1923,0.816345,4.31976,0.7001689999999999,17.1585,7.50732
0.34,12.6328,12.4725,9.32617,3.4896800000000003,11.1908,0.8209219999999999,4.31824,0.683384,17.1585,7.5119
0.36,12.6572,12.4725,9.32617,3.4881599999999997,11.1801,0.817871,4.31671,0.6864359999999999,17.1555,7.5103800000000005
0.38,12.6709,12.4863,9.3277,3.4896800000000003,11.1771,0.816345,4.31824,0.6864359999999999,17.157,7.50885
0.4,12.6831,12.4847,9.32922,3.49274,11.1786,0.817871,4.30756,0.6864359999999999,17.1478,7.5103800000000005
0.42,12.6999,12.4985,9.32617,3.4835800000000003,11.1618,0.817871,4.306030000000001,0.675754,17.1448,7.499689999999999
0.44,12.7197,12.4969,9.32465,3.4896800000000003,11.1664,0.814819,4.3045,0.674229,17.1478,7.496639999999999
0.46,12.7319,12.4985,9.32617,3.4896800000000003,11.1664,0.813293,4.306030000000001,0.674229,17.1432,7.50122
0.48,12.7533,12.5076,9.33075,3.4912099999999997,11.1557,0.814819,4.3045,0.67728,17.1478,7.49817
0.5,12.7701,12.5107,9.31702,3.4881599999999997,11.1572,0.817871,4.30756,0.674229,17.1371,7.496639999999999
0.52,12.793,12.5214,9.31396,3.4881599999999997,11.1557,0.816345,4.306030000000001,0.663547,17.1341,7.499689999999999
0.54,12.8189,12.5183,9.315489999999999,3.4881599999999997,11.1542,0.8193959999999999,4.30756,0.6650729999999999,17.1326,7.49817
0.56,12.8418,12.5198,9.31396,3.4896800000000003,11.142000000000001,0.814819,4.309080000000001,0.663547,17.1326,7.49512
0.58,12.854000000000001,12.5336,9.315489999999999,3.4866300000000003,11.1389,0.817871,4.306030000000001,0.6650729999999999,17.1341,7.49817
0.6,12.8738,12.5351,9.318539999999999,3.4881599999999997,11.1404,0.813293,4.3045,0.663547,17.1356,7.48291
0.62,12.8952,12.5336,9.318539999999999,3.4896800000000003,11.1435,0.817871,4.306030000000001,0.648289,17.1219,7.48596
0.64,12.9105,12.5305,9.31396,3.4881599999999997,11.1282,0.811767,4.3045,0.6498149999999999,17.1249,7.487489999999999
0.66,12.9379,12.5458,9.318539999999999,3.4866300000000003,11.1267,0.814819,4.3045,0.6513399999999999,17.1219,7.487489999999999
0.68,12.9593,12.5458,9.31702,3.4851099999999997,11.1298,0.817871,4.3045,0.652866,17.1204,7.484439999999999
0.7,12.9761,12.5458,9.31396,3.4912099999999997,11.1298,0.814819,4.30756,0.652866,17.1219,7.48596
0.72,12.9959,12.5458,9.31396,3.4896800000000003,11.1298,0.811767,4.306030000000001,0.6498149999999999,17.1234,7.484439999999999
0.74,13.0096,12.558,9.31702,3.4866300000000003,11.1176,0.816345,4.302980000000001,0.652866,17.1127,7.48596
0.76,13.0341,12.558,9.31702,3.4881599999999997,11.116,0.816345,4.3045,0.6498149999999999,17.1082,7.48596
0.78,13.0463,12.5549,9.31702,3.4851099999999997,11.1191,0.814819,4.3045,0.639133,17.1097,7.48291
0.8,13.0585,12.558,9.315489999999999,3.4866300000000003,11.1176,0.816345,4.30145,0.6360819999999999,17.0959,7.481380000000001
0.82,13.0798,12.5549,9.315489999999999,3.4881599999999997,11.1176,0.817871,4.306030000000001,0.6376069999999999,17.0959,7.472230000000001
0.84,13.0936,12.5671,9.315489999999999,3.4881599999999997,11.1053,0.816345,4.309080000000001,0.639133,17.0853,7.472230000000001
0.86,13.1165,12.5687,9.31702,3.4866300000000003,11.1099,0.816345,4.3045,0.6376069999999999,17.0746,7.47375
0.88,13.1332,12.5687,9.31702,3.4896800000000003,11.1038,0.814819,4.3045,0.6376069999999999,17.0731,7.4707
0.9,13.147,12.5702,9.31396,3.4912099999999997,11.1084,0.8193959999999999,4.302980000000001,0.623875,17.0624,7.47375
0.92,13.1577,12.5717,9.318539999999999,3.4866300000000003,11.0931,0.814819,4.3045,0.6254,17.0593,7.47375
0.94,13.1805,12.5839,9.312439999999999,3.4881599999999997,11.0947,0.816345,4.302980000000001,0.6254,17.0578,7.4707
0.96,13.1927,12.5839,9.30328,3.4866300000000003,11.0901,0.817871,4.30756,0.614719,17.0563,7.47375
0.98,13.205,12.5824,9.30176,3.4881599999999997,11.0794,0.814819,4.30756,0.614719,17.0502,7.475280000000001
1.0,13.2172,12.5824,9.30176,3.4912099999999997,11.0794,0.817871,4.302980000000001,0.611668,17.0456,7.475280000000001
1.02,13.2202,12.5824,9.30176,3.4896800000000003,11.0809,0.817871,4.30756,0.600986,17.0456,7.475280000000001
1.04,13.2294,12.5824,9.30481,3.4866300000000003,11.0825,0.816345,4.302980000000001,0.600986,17.0441,7.472230000000001
1.06,13.2431,12.5854,9.30328,3.4912099999999997,11.0672,0.814819,4.309080000000001,0.599461,17.0471,7.472230000000001
1.08,13.2553,12.5961,9.30023,3.4896800000000003,11.0687,0.814819,4.30756,0.599461,17.0471,7.4707
1.1,13.269,12.5946,9.30328,3.4896800000000003,11.0672,0.814819,4.30145,0.591831,17.0364,7.47375
1.12,13.2812,12.5992,9.30481,3.4896800000000003,11.055,0.816345,4.306030000000001,0.591831,17.0334,7.4585
1.14,13.2782,12.5961,9.30023,3.4896800000000003,11.055,0.817871,4.3045,0.5887789999999999,17.0364,7.46307
1.16,13.2919,12.5946,9.30176,3.4896800000000003,11.0565,0.816345,4.3045,0.5887789999999999,17.0349,7.46002
1.18,13.2935,12.5946,9.30176,3.4896800000000003,11.0535,0.816345,4.30756,0.578098,17.0364,7.46155
1.2,13.3026,12.5961,9.30328,3.4881599999999997,11.0428,0.8193959999999999,4.3045,0.579624,17.0334,7.46002
1.22,13.3011,12.5931,9.30023,3.4881599999999997,11.0428,0.814819,4.302980000000001,0.576572,17.0227,7.46307
1.24,13.3163,12.5946,9.30328,3.4896800000000003,11.0428,0.8193959999999999,4.306030000000001,0.576572,17.0212,7.46155
1.26,13.3179,12.5946,9.30481,3.4896800000000003,11.0336,0.816345,4.309080000000001,0.5750460000000001,17.0258,7.4585
1.28,13.3286,12.5916,9.30176,3.4881599999999997,11.0336,0.816345,4.3045,0.564365,17.0258,7.46307
1.3,13.3286,12.5961,9.30328,3.4866300000000003,11.0321,0.817871,4.30756,0.5674170000000001,17.0273,7.45087
1.32,13.3377,12.5946,9.30176,3.4881599999999997,11.0229,0.816345,4.3045,0.565891,17.0227,7.45087
1.34,13.3453,12.5916,9.30176,3.4866300000000003,11.0184,0.816345,4.30756,0.565891,17.0242,7.446289999999999
1.36,13.3392,12.5961,9.30633,3.4881599999999997,11.0153,0.816345,4.3045,0.562839,17.0258,7.449339999999999
1.38,13.3484,12.5961,9.30176,3.4881599999999997,11.0168,0.817871,4.306030000000001,0.55521,17.0135,7.446289999999999
1.4,13.3514,12.5961,9.30328,3.4774800000000003,11.0031,0.816345,4.306030000000001,0.552158,17.0105,7.45087
1.42,13.3514,12.5946,9.30481,3.4744300000000004,11.0077,0.8193959999999999,4.306030000000001,0.556736,17.012,7.4478100000000005
1.44,13.353,12.6007,9.30023,3.47595,11.0107,0.817871,4.3045,0.550632,16.9968,7.4478100000000005
1.46,13.3545,12.6038,9.2926,3.4774800000000003,11.0062,0.814819,4.299930000000001,0.55521,16.9983,7.4478100000000005
1.48,13.353,12.6022,9.291080000000001,3.4744300000000004,10.9924,0.813293,4.29535,0.552158,17.0013,7.449339999999999
1.5,13.3514,12.6068,9.28802,3.4774800000000003,10.9909,0.817871,4.293819999999999,0.55521,16.9876,7.45087
1.52,13.3499,12.6083,9.29565,3.4774800000000003,10.9802,0.813293,4.293819999999999,0.5414770000000001,16.9861,7.45087
1.54,13.3514,12.6083,9.28955,3.4729,10.9833,0.817871,4.296869999999999,0.538425,16.9754,7.449339999999999
1.56,13.3514,12.6038,9.28802,3.4774800000000003,10.9802,0.816345,4.2923,0.5399510000000001,16.9724,7.4417100000000005
1.58,13.353,12.6083,9.294130000000001,3.4729,10.968,0.8193959999999999,4.2923,0.5414770000000001,16.9739,7.4356100000000005
1.6,13.3514,12.5977,9.28955,3.47595,10.9695,0.816345,4.293819999999999,0.5262180000000001,16.9739,7.4386600000000005
1.62,13.3514,12.5931,9.28955,3.4744300000000004,10.968,0.816345,4.2923,0.5262180000000001,16.9632,7.437130000000001
1.64,13.3484,12.5977,9.28955,3.4789999999999996,10.9573,0.817871,4.293819999999999,0.527744,16.9632,7.437130000000001
1.66,13.3514,12.5946,9.28955,3.4744300000000004,10.9589,0.816345,4.293819999999999,0.527744,16.9632,7.434080000000001
1.68,13.3514,12.5946,9.28802,3.4774800000000003,10.9558,0.816345,4.29535,0.5262180000000001,16.9647,7.437130000000001
1.7,13.353,12.5946,9.28955,3.4744300000000004,10.9573,0.813293,4.29535,0.527744,16.9617,7.437130000000001
1.72,13.3499,12.5946,9.2926,3.4744300000000004,10.9604,0.816345,4.293819999999999,0.517063,16.9601,7.4325600000000005
1.74,13.3423,12.5931,9.291080000000001,3.4729,10.9543,0.814819,4.296869999999999,0.515537,16.9479,7.437130000000001
1.76,13.3438,12.5977,9.291080000000001,3.4744300000000004,10.9467,0.813293,4.2923,0.517063,16.951,7.437130000000001
1.78,13.3408,12.5946,9.291080000000001,3.4774800000000003,10.9451,0.816345,4.29535,0.514011,16.951,7.4417100000000005
1.8,13.3392,12.5946,9.2926,3.4774800000000003,10.9451,0.817871,4.293819999999999,0.50333,16.9495,7.4356100000000005
1.82,13.3286,12.5931,9.291080000000001,3.4789999999999996,10.9467,0.814819,4.296869999999999,0.50333,16.9479,7.424930000000001
1.84,13.3286,12.5839,9.2926,3.4789999999999996,10.9314,0.813293,4.290769999999999,0.5048560000000001,16.9479,7.424930000000001
1.86,13.3316,12.5854,9.291080000000001,3.4744300000000004,10.9375,0.816345,4.293819999999999,0.5048560000000001,16.9403,7.4234
1.88,13.3148,12.5824,9.2926,3.4774800000000003,10.9344,0.814819,4.296869999999999,0.50333,16.9357,7.424930000000001
1.9,13.3148,12.5824,9.291080000000001,3.4729,10.9344,0.817871,4.28925,0.486545,16.9373,7.421869999999999
1.92,13.3072,12.5824,9.277339999999999,3.4774800000000003,10.9177,0.8193959999999999,4.29535,0.492649,16.9388,7.424930000000001
1.94,13.3011,12.5854,9.28192,3.4729,10.9222,0.817871,4.293819999999999,0.492649,16.9357,7.421869999999999
1.96,13.2874,12.5824,9.277339999999999,3.4789999999999996,10.9207,0.813293,4.29535,0.488071,16.9357,7.424930000000001
1.98,13.2935,12.5809,9.27582,3.4805300000000003,10.9192,0.816345,4.293819999999999,0.494175,16.9266,7.424930000000001
2.0,13.2812,12.5809,9.27887,3.4744300000000004,10.9207,0.8193959999999999,4.293819999999999,0.47739,16.925,7.42035
2.02,13.2797,12.587,9.27887,3.4774800000000003,10.9116,0.816345,4.293819999999999,0.481968,16.925,7.41425
2.04,13.2645,12.5885,9.280389999999999,3.4774800000000003,10.91,0.814819,4.2923,0.47739,16.925,7.412719999999999
2.06,13.2629,12.5839,9.27887,3.4789999999999996,10.9116,0.816345,4.29535,0.480442,16.9235,7.41425
2.08,13.2675,12.5809,9.280389999999999,3.47595,10.9055,0.814819,4.296869999999999,0.47739,16.9128,7.412719999999999
2.1,13.2568,12.5809,9.280389999999999,3.4789999999999996,10.8948,0.813293,4.293819999999999,0.47739,16.9113,7.4173
2.12,13.2538,12.5839,9.277339999999999,3.47595,10.9009,0.813293,4.293819999999999,0.481968,16.8991,7.41425
2.14,13.2401,12.5824,9.280389999999999,3.47595,10.8978,0.817871,4.293819999999999,0.478916,16.9022,7.412719999999999
2.16,13.2446,12.5946,9.277339999999999,3.4789999999999996,10.8978,0.814819,4.2923,0.478916,16.8884,7.41425
2.18,13.2278,12.5946,9.277339999999999,3.4744300000000004,10.8994,0.816345,4.2923,0.47739,16.8884,7.4111899999999995
2.2,13.2309,12.5931,9.27582,3.47595,10.8841,0.813293,4.293819999999999,0.47739,16.8869,7.412719999999999
2.22,13.2294,12.6099,9.27887,3.47595,10.8841,0.816345,4.29535,0.475864,16.8777,7.41425
2.24,13.2187,12.6068,9.280389999999999,3.4774800000000003,10.8841,0.816345,4.29535,0.478916,16.8747,7.4111899999999995
2.26,13.2156,12.6068,9.27887,3.47595,10.8871,0.814819,4.293819999999999,0.47739,16.8777,7.41425
2.28,13.205,12.6205,9.27887,3.47595,10.8871,0.816345,4.290769999999999,0.481968,16.8777,7.4111899999999995
2.3,13.2034,12.6205,9.280389999999999,3.47595,10.8856,0.814819,4.2923,0.46670900000000004,16.8793,7.4020399999999995
2.32,13.2034,12.6312,9.280389999999999,3.4789999999999996,10.8734,0.814819,4.293819999999999,0.460606,16.8777,7.3989899999999995
2.34,13.1912,12.6419,9.27887,3.47595,10.8719,0.817871,4.293819999999999,0.468235,16.8671,7.403560000000001
2.36,13.1912,12.6541,9.26666,3.4789999999999996,10.8704,0.814819,4.293819999999999,0.46670900000000004,16.8655,7.3989899999999995
2.38,13.1805,12.6556,9.26971,3.47595,10.8749,0.817871,4.2923,0.46670900000000004,16.8655,7.397460000000001
2.4,13.1805,12.6663,9.268189999999999,3.47595,10.8704,0.816345,4.29535,0.463657,16.8655,7.403560000000001
2.42,13.175999999999998,12.6831,9.268189999999999,3.4744300000000004,10.8612,0.816345,4.29535,0.456028,16.864,7.403560000000001
2.44,13.1668,12.6953,9.26666,3.4744300000000004,10.8627,0.813293,4.290769999999999,0.454502,16.864,7.397460000000001
2.46,13.1668,12.6938,9.26666,3.4789999999999996,10.8627,0.814819,4.2923,0.456028,16.8488,7.3989899999999995
2.48,13.1531,12.7045,9.26666,3.4744300000000004,10.8612,0.813293,4.2923,0.454502,16.8518,7.400510000000001
2.5,13.1546,12.7182,9.265139999999999,3.47595,10.8627,0.813293,4.28925,0.454502,16.8549,7.400510000000001
2.52,13.1531,12.7182,9.265139999999999,3.4774800000000003,10.8612,0.816345,4.29535,0.442295,16.8533,7.4020399999999995
2.54,13.1439,12.7319,9.268189999999999,3.4774800000000003,10.8612,0.8193959999999999,4.293819999999999,0.442295,16.8503,7.403560000000001
2.56,13.147,12.7289,9.268189999999999,3.4744300000000004,10.8475,0.814819,4.3045,0.44076899999999997,16.8503,7.391360000000001
2.58,13.1393,12.7426,9.26666,3.47595,10.849,0.816345,4.3045,0.442295,16.8564,7.38983
2.6,13.1332,12.7426,9.26971,3.4789999999999996,10.849,0.8193959999999999,4.302980000000001,0.44076899999999997,16.8533,7.3822
2.62,13.1317,12.7533,9.265139999999999,3.4744300000000004,10.8505,0.816345,4.306030000000001,0.443821,16.8503,7.38525
2.64,13.1348,12.7548,9.26666,3.4774800000000003,10.849,0.814819,4.302980000000001,0.428562,16.8518,7.38525
2.66,13.118,12.7533,9.26666,3.4774800000000003,10.8475,0.811767,4.30756,0.42551000000000005,16.8396,7.388310000000001
2.68,13.1195,12.7655,9.26666,3.47595,10.8459,0.8193959999999999,4.302980000000001,0.430088,16.8411,7.38525
2.7,13.1104,12.7655,9.268189999999999,3.4805300000000003,10.849,0.817871,4.3045,0.428562,16.8427,7.38678
2.72,13.0981,12.7777,9.26361,3.47595,10.849,0.816345,4.302980000000001,0.430088,16.8381,7.388310000000001
2.74,13.0951,12.7823,9.26666,3.46527,10.8368,0.816345,4.306030000000001,0.43161400000000005,16.8411,7.377619999999999
2.76,13.0859,12.7899,9.26666,3.46374,10.8353,0.816345,4.302980000000001,0.41635500000000003,16.8259,7.3761
2.78,13.0814,12.793,9.26666,3.46374,10.8368,0.817871,4.309080000000001,0.419407,16.8304,7.374569999999999
2.8,13.0859,12.8036,9.268189999999999,3.46222,10.8337,0.811767,4.3045,0.420933,16.8274,7.3761
2.82,13.0692,12.8052,9.268189999999999,3.46527,10.8368,0.816345,4.306030000000001,0.419407,16.8304,7.374569999999999
2.84,13.0676,12.8159,9.265139999999999,3.46222,10.8337,0.814819,4.3045,0.41635500000000003,16.8274,7.3761
2.86,13.0539,12.8174,9.27277,3.46069,10.8246,0.817871,4.3045,0.419407,16.8274,7.3761
2.88,13.0615,12.8311,9.268189999999999,3.46374,10.8246,0.814819,4.3045,0.41635500000000003,16.8167,7.3761
2.9,13.06,12.8281,9.271239999999999,3.46527,10.8246,0.816345,4.30756,0.41788100000000006,16.8182,7.374569999999999
2.92,13.0432,12.8296,9.25445,3.46527,10.82,0.817871,4.3045,0.414829,16.8213,7.3761
2.94,13.0478,12.8387,9.25445,3.46222,10.8231,0.816345,4.309080000000001,0.41788100000000006,16.8289,7.3761
2.96,13.0447,12.8403,9.25751,3.46069,10.8231,0.817871,4.302980000000001,0.41788100000000006,16.8289,7.37305
2.98,13.030999999999999,12.8403,9.255980000000001,3.46222,10.8215,0.813293,4.3045,0.41788100000000006,16.8274,7.362369999999999
3.0,13.030999999999999,12.8403,9.255980000000001,3.4668,10.8276,0.816345,4.306030000000001,0.41635500000000003,16.8274,7.36389
3.02,13.0341,12.8357,9.252930000000001,3.46374,10.8124,0.816345,4.309080000000001,0.420933,16.8304,7.36389
3.04,13.0325,12.8525,9.25445,3.46222,10.8124,0.816345,4.30756,0.405674,16.8274,7.36389
3.06,13.0188,12.8494,9.25445,3.4668,10.8139,0.814819,4.3045,0.405674,16.8304,7.359310000000001
3.08,13.0249,12.8525,9.25445,3.46374,10.8139,0.817871,4.30756,0.405674,16.8259,7.365419999999999
3.1,13.0188,12.850999999999999,9.252930000000001,3.46222,10.8109,0.8193959999999999,4.30756,0.404148,16.8274,7.36389
3.12,13.0081,12.8525,9.25445,3.46222,10.8109,0.817871,4.306030000000001,0.401096,16.8411,7.36389
3.14,13.0081,12.850999999999999,9.252930000000001,3.46832,10.8124,0.813293,4.3045,0.401096,16.8411,7.362369999999999
3.16,13.0112,12.850999999999999,9.252930000000001,3.46985,10.8124,0.8193959999999999,4.302980000000001,0.404148,16.8411,7.36389
3.18,13.0081,12.850999999999999,9.25445,3.46374,10.8139,0.817871,4.30756,0.401096,16.8381,7.365419999999999
3.2,12.9959,12.8632,9.255980000000001,3.4668,10.8002,0.814819,4.3045,0.402622,16.8427,7.36389
3.22,12.9974,12.8616,9.2514,3.46374,10.8002,0.816345,4.3045,0.40872600000000003,16.8411,7.36389
3.24,12.9959,12.8647,9.25445,3.46069,10.8002,0.816345,4.306030000000001,0.4072,16.8396,7.36389
3.26,12.9959,12.8632,9.255980000000001,3.46527,10.7971,0.814819,4.309080000000001,0.41635500000000003,16.8411,7.35474
3.28,12.9883,12.8632,9.252930000000001,3.46222,10.7986,0.814819,4.30756,0.41788100000000006,16.8396,7.35168
3.3,12.9837,12.8647,9.259030000000001,3.46374,10.8002,0.8209219999999999,4.306030000000001,0.414829,16.8396,7.353210000000001
3.32,12.9852,12.8647,9.25445,3.46222,10.8002,0.814819,4.3045,0.41635500000000003,16.8411,7.353210000000001
3.34,12.9852,12.8754,9.2514,3.46222,10.7986,0.816345,4.306030000000001,0.419407,16.8396,7.35168
3.36,12.9852,12.8754,9.25751,3.46527,10.7986,0.816345,4.30756,0.428562,16.8381,7.35168
3.38,12.9715,12.886,9.25445,3.46832,10.7864,0.817871,4.3045,0.43161400000000005,16.8427,7.35168
3.4,12.9715,12.8998,9.25445,3.46527,10.788,0.813293,4.3045,0.430088,16.8411,7.350160000000001
3.42,12.972999999999999,12.9227,9.24225,3.46374,10.7864,0.811767,4.306030000000001,0.43924300000000005,16.8411,7.35168
3.44,12.972999999999999,12.9364,9.24072,3.46374,10.788,0.817871,4.306030000000001,0.44076899999999997,16.8274,7.350160000000001
3.46,12.9745,12.9608,9.24072,3.46374,10.7864,0.816345,4.306030000000001,0.45145,16.8274,7.347110000000001
3.48,12.9578,12.9959,9.2392,3.46527,10.7864,0.8193959999999999,4.3045,0.463657,16.8289,7.33795
3.5,12.9623,13.0219,9.24225,3.4668,10.7864,0.811767,4.309080000000001,0.465183,16.8152,7.33948
3.52,12.9639,13.0447,9.24072,3.4668,10.788,0.8193959999999999,4.30756,0.475864,16.8137,7.33948
3.54,12.9608,13.0661,9.24377,3.46527,10.7849,0.817871,4.30756,0.491123,16.8152,7.3349
3.56,12.9486,13.0829,9.24072,3.46222,10.7895,0.814819,4.30756,0.501804,16.8137,7.33948
3.58,12.9456,13.1073,9.2392,3.46527,10.7849,0.816345,4.3045,0.5124850000000001,16.8137,7.33948
3.6,12.9501,13.118,9.2453,3.46832,10.7864,0.817871,4.302980000000001,0.517063,16.803,7.33948
3.62,12.9456,13.1409,9.24225,3.46222,10.7895,0.816345,4.30756,0.5262180000000001,16.8045,7.33948
