time(s),200369,100146,100147,100145,110409,100150,100149,100152,100151,100148
0.0,23.8937,10.2615,1.92871,6.22864,1.0742200000000002,9.11255,11.7279,12.4161,21.785,11.94
0.02,23.9334,10.257,1.92718,6.22711,1.0742200000000002,9.11255,11.7294,12.4191,21.7865,11.9431
0.04,23.9685,10.26,1.92871,6.22864,1.07574,9.11102,11.7279,12.4207,21.7834,11.9385
0.06,24.0097,10.2585,1.93176,6.22559,1.0742200000000002,9.11102,11.7249,12.4115,21.7865,11.9385
0.08,24.0341,10.257,1.93176,6.23016,1.0788,9.11255,11.734000000000002,12.4161,21.7865,11.94
0.1,24.0692,10.257,1.92871,6.22711,1.0742200000000002,9.1156,11.7279,12.4176,21.7865,11.94
0.12,24.0936,10.26,1.9302400000000002,6.22559,1.0711700000000002,9.11102,11.7279,12.4176,21.785,11.9385
0.14,24.1318,10.2585,1.9332900000000002,6.22559,1.0788,9.11255,11.7279,12.4161,21.7743,11.9385
0.16,24.1516,10.257,1.9302400000000002,6.22406,1.07574,9.11102,11.7294,12.4176,21.7712,11.94
0.18,24.1791,10.257,1.92871,6.22711,1.0772700000000002,9.11255,11.7294,12.4176,21.7728,11.9385
0.2,24.2065,10.2615,1.92871,6.22406,1.0772700000000002,9.09729,11.7279,12.4146,21.7743,11.9415
0.22,24.2142,10.2585,1.92871,6.22864,1.07574,9.10797,11.731,12.4161,21.7712,11.9385
0.24,24.2371,10.2585,1.93176,6.22406,1.0788,9.10339,11.7264,12.4146,21.7728,11.9385
0.26,24.2554,10.2585,1.93176,6.22406,1.07574,9.10187,11.7325,12.4161,21.7697,11.9385
0.28,24.2737,10.257,1.92871,6.22711,1.0742200000000002,9.10034,11.7279,12.4146,21.7728,11.9293
0.3,24.2844,10.2585,1.9302400000000002,6.22711,1.0788,9.10187,11.7294,12.4161,21.7758,11.9293
0.32,24.2981,10.26,1.9302400000000002,6.22406,1.0803200000000002,9.10339,11.7279,12.4146,21.7728,11.9263
0.34,24.3118,10.257,1.9302400000000002,6.22559,1.0772700000000002,9.10187,11.731,12.4161,21.7728,11.9247
0.36,24.3225,10.26,1.93176,6.23016,1.0742200000000002,9.10187,11.7249,12.4161,21.7712,11.9308
0.38,24.3347,10.2615,1.92871,6.22559,1.07574,9.10034,11.7294,12.4176,21.7728,11.9308
0.4,24.3469,10.26,1.93176,6.22864,1.0742200000000002,9.10034,11.7279,12.4191,21.7728,11.9308
0.42,24.3515,10.257,1.9302400000000002,6.22559,1.07574,9.10339,11.7279,12.4161,21.7743,11.9278
0.44,24.35,10.2585,1.9302400000000002,6.22406,1.07574,9.10034,11.7264,12.4161,21.7743,11.9293
0.46,24.3591,10.2585,1.93176,6.23016,1.07574,9.10034,11.7264,12.4161,21.7743,11.9278
0.48,24.3591,10.2585,1.92871,6.22864,1.0772700000000002,9.10187,11.7264,12.4161,21.7743,11.9278
0.5,24.3607,10.26,1.92871,6.22711,1.0772700000000002,9.09882,11.7279,12.413,21.759,11.9263
0.52,24.3607,10.26,1.92871,6.22864,1.0742200000000002,9.09119,11.7294,12.4146,21.759,11.9263
0.54,24.3484,10.2615,1.92718,6.22864,1.07574,9.08966,11.731,12.413,21.759,11.9293
0.56,24.3469,10.2631,1.92566,6.22559,1.0772700000000002,9.08813,11.7264,12.4146,21.7621,11.9278
0.58,24.3347,10.2585,1.92871,6.21643,1.0788,9.09119,11.7279,12.4161,21.759,11.9293
0.6,24.3347,10.26,1.92718,6.21643,1.0772700000000002,9.08813,11.7325,12.4191,21.7606,11.9247
0.62,24.324,10.2631,1.92871,6.21185,1.0772700000000002,9.09119,11.7279,12.4191,21.7621,11.9247
0.64,24.3103,10.2585,1.9302400000000002,6.2149,1.0772700000000002,9.08813,11.731,12.4161,21.7606,11.9278
0.66,24.2996,10.2615,1.9302400000000002,6.21338,1.07574,9.07745,11.7264,12.4146,21.759,11.9278
0.68,24.2874,10.26,1.92871,6.21796,1.07574,9.07745,11.7279,12.4161,21.7621,11.9293
0.7,24.2752,10.26,1.9302400000000002,6.21948,1.07269,9.07593,11.7264,12.4176,21.7575,11.9171
0.72,24.2599,10.26,1.93176,6.21185,1.0772700000000002,9.07745,11.7294,12.4191,21.7484,11.9156
0.74,24.2493,10.2585,1.9302400000000002,6.2149,1.07574,9.07745,11.7249,12.4161,21.7499,11.9171
0.76,24.2401,10.2585,1.93481,6.2149,1.07574,9.07288,11.7279,12.4176,21.7514,11.9125
0.78,24.2249,10.26,1.93176,6.2149,1.0772700000000002,9.07593,11.7264,12.4176,21.7484,11.9186
0.8,24.1989,10.2585,1.92871,6.21338,1.0772700000000002,9.07593,11.7279,12.4161,21.7499,11.9171
0.82,24.1898,10.2585,1.92718,6.21796,1.0772700000000002,9.0744,11.7279,12.4161,21.7499,11.9141
0.84,24.1776,10.257,1.92871,6.21338,1.0772700000000002,9.07745,11.7279,12.4176,21.7484,11.9156
0.86,24.1531,10.2585,1.92871,6.2149,1.07574,9.06372,11.7294,12.4176,21.7499,11.9125
0.88,24.144000000000002,10.2615,1.92871,6.2149,1.0772700000000002,9.06219,11.7294,12.4207,21.7514,11.9141
0.9,24.115,10.2585,1.92871,6.2149,1.0772700000000002,9.05914,11.7294,12.4176,21.7484,11.9156
0.92,24.0921,10.26,1.9302400000000002,6.2149,1.0803200000000002,9.06677,11.7264,12.4161,21.7484,11.9141
0.94,24.0692,10.2707,1.9302400000000002,6.2149,1.0742200000000002,9.06525,11.7264,12.4115,21.7484,11.9156
0.96,24.0524,10.2737,1.9302400000000002,6.21796,1.07574,9.06525,11.7264,12.4146,21.7361,11.9156
0.98,24.0295,10.2737,1.92871,6.21185,1.0772700000000002,9.06525,11.7294,12.4176,21.7361,11.9003
1.0,24.0082,10.2737,1.9302400000000002,6.21643,1.0742200000000002,9.06372,11.7279,12.4176,21.7377,11.9034
1.02,23.9868,10.2737,1.92566,6.21796,1.07574,9.06219,11.7279,12.4161,21.7377,11.9034
1.04,23.9548,10.2722,1.9302400000000002,6.2149,1.07574,9.06372,11.7279,12.4161,21.7346,11.9064
1.06,23.9319,10.2692,1.92718,6.21338,1.0742200000000002,9.06677,11.7294,12.4191,21.7346,11.9064
1.08,23.9075,10.2722,1.92871,6.21643,1.0803200000000002,9.06525,11.7325,12.4115,21.7346,11.9049
1.1,23.8831,10.2722,1.93176,6.21643,1.0772700000000002,9.06067,11.7294,12.4176,21.7346,11.9034
1.12,23.8586,10.2737,1.92871,6.21338,1.0772700000000002,9.06372,11.7294,12.4146,21.7407,11.9003
1.14,23.8373,10.2737,1.92871,6.2149,1.0742200000000002,9.06372,11.7249,12.4176,21.7361,11.8927
1.16,23.8113,10.2859,1.92718,6.21338,1.0742200000000002,9.06525,11.7279,12.4191,21.7377,11.8896
1.18,23.7869,10.2875,1.92871,6.21338,1.0772700000000002,9.05304,11.731,12.4146,21.7377,11.8881
1.2,23.7595,10.2859,1.9332900000000002,6.21185,1.0772700000000002,9.05304,11.7279,12.4161,21.7377,11.8866
1.22,23.7396,10.2814,1.93176,6.21185,1.0788,9.05151,11.7264,12.4191,21.7346,11.8896
1.24,23.7152,10.2844,1.93176,6.21185,1.07574,9.05456,11.7294,12.4176,21.7361,11.8942
1.26,23.6877,10.2844,1.92871,6.2149,1.0742200000000002,9.05456,11.7279,12.4176,21.7346,11.8912
1.28,23.6633,10.2859,1.9302400000000002,6.2149,1.07574,9.05304,11.7264,12.4146,21.7194,11.8927
1.3,23.6404,10.2829,1.92871,6.20575,1.07574,9.04846,11.731,12.4176,21.7209,11.8912
1.32,23.616,10.2814,1.92718,6.201169999999999,1.0742200000000002,9.05304,11.7249,12.4146,21.7255,11.8942
1.34,23.5901,10.2844,1.9302400000000002,6.2027,1.0788,9.05151,11.7279,12.4146,21.7255,11.8912
1.36,23.5626,10.2936,1.9332900000000002,6.204219999999999,1.07574,9.05151,11.7279,12.4191,21.7255,11.8881
1.38,23.5382,10.2966,1.93176,6.2027,1.07574,9.04999,11.7279,12.4161,21.7255,11.8912
1.4,23.5168,10.2951,1.9332900000000002,6.204219999999999,1.0772700000000002,9.05304,11.7249,12.4146,21.7255,11.8896
1.42,23.4909,10.2982,1.92871,6.204219999999999,1.07269,9.05304,11.7249,12.4146,21.7255,11.8881
1.44,23.4726,10.2951,1.92871,6.20575,1.07574,9.05151,11.731,12.413,21.7239,11.8927
1.46,23.4528,10.2997,1.9302400000000002,6.2027,1.0772700000000002,9.05151,11.7264,12.41,21.7224,11.8896
1.48,23.4314,10.2951,1.92871,6.2027,1.0788,9.04846,11.7279,12.4161,21.726999999999997,11.8912
1.5,23.406999999999996,10.2951,1.92871,6.204219999999999,1.07574,9.04083,11.7264,12.4161,21.7224,11.8912
1.52,23.3826,10.2966,1.92871,6.2027,1.0742200000000002,9.03931,11.7279,12.4146,21.7224,11.8912
1.54,23.3688,10.2951,1.92718,6.204219999999999,1.07574,9.03931,11.7294,12.4329,21.7102,11.8927
1.56,23.3444,10.3134,1.92718,6.19965,1.0803200000000002,9.04083,11.7249,12.4283,21.7102,11.8942
1.58,23.3215,10.3104,1.9302400000000002,6.201169999999999,1.0788,9.04236,11.7249,12.4268,21.7102,11.8774
1.6,23.3063,10.3073,1.9302400000000002,6.19965,1.0772700000000002,9.04083,11.7325,12.4283,21.7102,11.8805
1.62,23.2864,10.3104,1.93176,6.204219999999999,1.0788,9.02557,11.7294,12.4268,21.7087,11.879000000000001
1.64,23.261999999999997,10.3104,1.9302400000000002,6.2027,1.07574,9.02862,11.731,12.4283,21.7087,11.8759
1.66,23.2498,10.3058,1.9302400000000002,6.204219999999999,1.0772700000000002,9.0271,11.7264,12.4283,21.7087,11.8805
1.68,23.2224,10.3119,1.9302400000000002,6.201169999999999,1.07269,9.02862,11.7279,12.4283,21.7133,11.8805
1.7,23.2132,10.3104,1.9302400000000002,6.204219999999999,1.0788,9.0271,11.7325,12.4298,21.7087,11.8774
1.72,23.1873,10.3088,1.93176,6.207269999999999,1.0788,9.02862,11.7294,12.4252,21.7117,11.8774
1.74,23.1628,10.3088,1.9302400000000002,6.19965,1.0788,9.0271,11.7279,12.4313,21.7087,11.8774
1.76,23.1476,10.3226,1.92718,6.2088,1.0772700000000002,9.03168,11.7264,12.4313,21.6995,11.8774
1.78,23.1277,10.3195,1.92871,6.201169999999999,1.0772700000000002,9.02862,11.7294,12.4283,21.701,11.879000000000001
1.8,23.114,10.3226,1.93176,6.201169999999999,1.07269,9.02862,11.7264,12.4283,21.7026,11.8759
1.82,23.0865,10.321,1.92871,6.19965,1.0772700000000002,9.0271,11.7294,12.4252,21.701,11.8774
1.84,23.0759,10.3241,1.92871,6.201169999999999,1.07269,9.01489,11.7249,12.4283,21.698,11.8668
1.86,23.0637,10.3226,1.92871,6.201169999999999,1.0772700000000002,9.01642,11.7279,12.4298,21.701,11.8652
1.88,23.0377,10.321,1.9302400000000002,6.2027,1.07574,9.01642,11.731,12.4283,21.6965,11.8637
1.9,23.0286,10.321,1.9302400000000002,6.201169999999999,1.0772700000000002,9.01642,11.7325,12.4252,21.701,11.8652
1.92,23.0209,10.321,1.9302400000000002,6.19965,1.0772700000000002,9.01489,11.731,12.4283,21.6995,11.8622
1.94,22.9904,10.3333,1.92871,6.204219999999999,1.07574,9.01642,11.7279,12.4268,21.6965,11.8683
1.96,22.9782,10.3333,1.9302400000000002,6.18896,1.0772700000000002,9.01642,11.7264,12.4298,21.701,11.8668
1.98,22.965999999999998,10.3317,1.92718,6.1935400000000005,1.0788,9.01794,11.731,12.4298,21.6995,11.8683
2.0,22.9538,10.3333,1.9302400000000002,6.1904900000000005,1.07574,9.01489,11.7264,12.4268,21.6919,11.8683
2.02,22.9309,10.3333,1.93176,6.192019999999999,1.0788,9.01489,11.7264,12.4268,21.6873,11.8637
2.04,22.9172,10.3333,1.92871,6.192019999999999,1.07269,9.01642,11.7279,12.4268,21.6858,11.8652
2.06,22.9034,10.3333,1.92871,6.1935400000000005,1.07574,9.01947,11.731,12.4298,21.6858,11.8652
2.08,22.8928,10.3363,1.92718,6.18896,1.0788,9.01337,11.7294,12.4283,21.6843,11.8652
2.1,22.8699,10.3439,1.92871,6.1904900000000005,1.07269,9.01642,11.7264,12.4237,21.6888,11.8668
2.12,22.8577,10.347000000000001,1.92871,6.1904900000000005,1.0742200000000002,9.01642,11.7294,12.4252,21.6873,11.8652
2.14,22.8424,10.3439,1.92718,6.1904900000000005,1.0788,9.01489,11.7325,12.4298,21.6873,11.8668
2.16,22.8317,10.3455,1.93176,6.1904900000000005,1.07269,9.00726,11.731,12.4283,21.6873,11.8698
2.18,22.818,10.3455,1.92871,6.18896,1.0772700000000002,9.00269,11.7249,12.4298,21.6766,11.8683
2.2,22.8088,10.3485,1.9302400000000002,6.1904900000000005,1.07574,9.00421,11.731,12.4313,21.6751,11.8652
2.22,22.7936,10.3455,1.92871,6.192019999999999,1.07574,9.00574,11.7249,12.4313,21.6751,11.8713
2.24,22.7814,10.3424,1.92871,6.18896,1.0772700000000002,9.00574,11.7264,12.4298,21.6751,11.8637
2.26,22.7707,10.347000000000001,1.92718,6.18896,1.0772700000000002,9.00269,11.7279,12.4283,21.6751,11.8652
2.28,22.756999999999998,10.3592,1.9302400000000002,6.18896,1.0788,9.00421,11.7294,12.4283,21.6751,11.853
2.3,22.7448,10.3577,1.92871,6.192019999999999,1.07269,9.00421,11.7249,12.4283,21.6614,11.8546
2.32,22.7341,10.3577,1.93176,6.1904900000000005,1.07574,9.00726,11.731,12.4283,21.6629,11.8561
2.34,22.7219,10.3561,1.9302400000000002,6.18896,1.0788,9.00269,11.7279,12.4283,21.666,11.853
2.36,22.7219,10.3577,1.92871,6.192019999999999,1.07574,9.00421,11.7294,12.4283,21.6599,11.853
2.38,22.7066,10.3607,1.93176,6.1904900000000005,1.07574,8.99048,11.7264,12.4298,21.6644,11.8561
2.4,22.6913,10.3546,1.92871,6.1904900000000005,1.0772700000000002,8.98895,11.7294,12.4268,21.6644,11.8561
2.42,22.6837,10.3577,1.92871,6.18896,1.07574,8.992,11.7279,12.4252,21.6644,11.8546
2.44,22.673000000000002,10.3561,1.9332900000000002,6.1904900000000005,1.0788,8.98895,11.731,12.4298,21.6644,11.8546
2.46,22.6761,10.3729,1.93176,6.17828,1.07574,8.992,11.7264,12.4283,21.666,11.8546
2.48,22.6608,10.3683,1.92871,6.18133,1.0772700000000002,8.992,11.7249,12.4268,21.6629,11.8546
2.5,22.6471,10.3699,1.92871,6.17523,1.0772700000000002,8.992,11.731,12.4313,21.6629,11.8561
2.52,22.6349,10.3836,1.93176,6.17981,1.07574,8.97827,11.7294,12.4298,21.666,11.8546
2.54,22.6334,10.3836,1.9302400000000002,6.17828,1.0772700000000002,8.98285,11.7249,12.4283,21.6629,11.85
2.56,22.6257,10.3821,1.9302400000000002,6.17981,1.07574,8.9798,11.7264,12.4283,21.6507,11.8561
2.58,22.6105,10.3821,1.9302400000000002,6.17981,1.0788,8.9798,11.7294,12.4252,21.6522,11.853
2.6,22.5983,10.3821,1.92871,6.17981,1.0772700000000002,8.9798,11.7249,12.4298,21.6507,11.853
2.62,22.5983,10.3806,1.92871,6.17981,1.0742200000000002,8.9798,11.7279,12.4283,21.6507,11.8515
2.64,22.5845,10.3821,1.92871,6.18286,1.0788,8.97827,11.731,12.4283,21.6507,11.853
2.66,22.5739,10.3821,1.92871,6.17981,1.0788,8.97827,11.731,12.4268,21.6522,11.853
2.68,22.5571,10.3867,1.9302400000000002,6.17828,1.07574,8.98132,11.7264,12.4283,21.6476,11.8561
2.7,22.5616,10.3989,1.92871,6.17828,1.0772700000000002,8.9798,11.7249,12.4298,21.6507,11.8546
2.72,22.5479,10.3958,1.93176,6.17981,1.0772700000000002,8.9798,11.7264,12.4298,21.6492,11.853
2.74,22.5418,10.3958,1.9393900000000002,6.17828,1.0772700000000002,8.98132,11.7279,12.442,21.6522,11.853
2.76,22.5342,10.3943,1.93787,6.17981,1.0803200000000002,8.98132,11.7294,12.439,21.6385,11.8515
2.78,22.5372,10.3943,1.94092,6.18133,1.0772700000000002,8.9798,11.7325,12.4435,21.64,11.853
2.8,22.5265,10.3928,1.92871,6.17676,1.0788,8.96759,11.7294,12.4405,21.636999999999997,11.853
2.82,22.522,10.3958,1.92871,6.17676,1.0788,8.96606,11.7294,12.442,21.64,11.8561
2.84,22.5143,10.3973,1.92566,6.17676,1.07574,8.96606,11.731,12.4405,21.6354,11.8546
2.86,22.5159,10.3973,1.9302400000000002,6.17981,1.07574,8.96759,11.7264,12.439,21.64,11.8546
2.88,22.5128,10.3928,1.93176,6.18133,1.0772700000000002,8.96759,11.7294,12.442,21.6385,11.8561
2.9,22.5021,10.3989,1.9424400000000002,6.17676,1.07574,8.96912,11.7279,12.442,21.6354,11.8546
2.92,22.496,10.4034,1.9332900000000002,6.17981,1.0788,8.96301,11.7264,12.4405,21.6385,11.8546
2.94,22.5006,10.408,1.92871,6.17828,1.0742200000000002,8.96912,11.7294,12.439,21.6385,11.853
2.96,22.4991,10.4095,1.92871,6.17828,1.07574,8.96912,11.7264,12.4405,21.6446,11.853
2.98,22.5006,10.408,1.94397,6.17828,1.0772700000000002,8.96912,11.7264,12.439,21.636999999999997,11.8546
3.0,22.5021,10.408,1.9302400000000002,6.17828,1.0772700000000002,8.96606,11.7249,12.4405,21.636999999999997,11.8546
3.02,22.4884,10.4034,1.92871,6.17828,1.07574,8.96912,11.7294,12.4405,21.6248,11.8423
3.04,22.4884,10.4034,1.9302400000000002,6.17676,1.0742200000000002,8.96606,11.731,12.4405,21.6263,11.8423
3.06,22.5021,10.405,1.92871,6.17828,1.0742200000000002,8.96454,11.7279,12.4405,21.6232,11.8408
3.08,22.5021,10.408,1.93176,6.17676,1.0742200000000002,8.97064,11.7294,12.4374,21.6263,11.8408
3.1,22.5006,10.408,1.92871,6.1630199999999995,1.0742200000000002,8.96454,11.7294,12.4435,21.6248,11.8423
3.12,22.5037,10.408,1.92718,6.1630199999999995,1.07574,8.96606,11.7279,12.442,21.6248,11.8423
3.14,22.5006,10.4095,1.92718,6.16608,1.07269,8.96606,11.7279,12.4435,21.6278,11.8423
3.16,22.5143,10.4065,1.9424400000000002,6.16608,1.0772700000000002,8.96759,11.7401,12.439,21.6278,11.8393
3.18,22.5128,10.4065,1.9302400000000002,6.1676,1.0772700000000002,8.96759,11.7416,12.4435,21.6263,11.8393
3.2,22.5235,10.408,1.92871,6.1676,1.0772700000000002,8.96759,11.7432,12.439,21.6248,11.8439
3.22,22.5372,10.4034,1.92871,6.16608,1.07269,8.96759,11.7401,12.439,21.6232,11.8423
3.24,22.551,10.408,1.92718,6.16913,1.0742200000000002,8.96912,11.7401,12.4405,21.6232,11.8393
3.26,22.5616,10.4065,1.9302400000000002,6.16913,1.0772700000000002,8.95386,11.7386,12.4405,21.6263,11.8439
3.28,22.5739,10.4065,1.92871,6.16608,1.07574,8.95691,11.7401,12.4359,21.6263,11.8423
3.3,22.5952,10.405,1.9302400000000002,6.16455,1.07574,8.95691,11.7416,12.442,21.6248,11.8408
3.32,22.6089,10.405,1.92718,6.16608,1.0772700000000002,8.95843,11.7386,12.4435,21.6171,11.8393
3.34,22.6364,10.408,1.9302400000000002,6.1676,1.0788,8.95386,11.7416,12.4405,21.6141,11.8423
3.36,22.6639,10.4095,1.92871,6.1676,1.08185,8.95843,11.7416,12.442,21.611,11.8393
3.38,22.6852,10.408,1.92871,6.16608,1.07574,8.95691,11.7401,12.4405,21.6141,11.8423
3.4,22.7081,10.4065,1.92718,6.1676,1.0772700000000002,8.95691,11.7416,12.439,21.6125,11.8408
3.42,22.7325,10.4202,1.92871,6.17065,1.07574,8.95538,11.7386,12.442,21.6095,11.8393
3.44,22.7554,10.4202,1.93176,6.16608,1.0772700000000002,8.95233,11.7416,12.442,21.6125,11.8439
3.46,22.7921,10.4126,1.9332900000000002,6.1676,1.0788,8.95386,11.7416,12.439,21.6125,11.8393
3.48,22.8195,10.4202,1.93176,6.1630199999999995,1.0772700000000002,8.95843,11.7386,12.4405,21.6141,11.8423
3.5,22.8546,10.4218,1.92871,6.16913,1.0772700000000002,8.95843,11.7447,12.439,21.6141,11.8393
3.52,22.8912,10.4218,1.93176,6.16608,1.07574,8.95996,11.7371,12.439,21.6125,11.8439
3.54,22.9172,10.4202,1.92871,6.16913,1.0788,8.95538,11.7401,12.439,21.6156,11.8408
3.56,22.9538,10.4187,1.92871,6.1676,1.0772700000000002,8.95843,11.7416,12.4405,21.6141,11.8347
3.58,22.9919,10.4187,1.92871,6.16608,1.0742200000000002,8.95386,11.7416,12.4405,21.6034,11.8408
3.6,23.026999999999997,10.4202,1.92871,6.16608,1.07574,8.95538,11.7386,12.442,21.6034,11.8439
3.62,23.0606,10.4202,1.93176,6.17065,1.0803200000000002,8.95691,11.7416,12.4451,21.6019,11.8408
3.64,23.0988,10.4187,1.93176,6.16455,1.0772700000000002,8.95386,11.7416,12.4435,21.6034,11.8423
3.66,23.1262,10.4187,1.92871,6.1676,1.0772700000000002,8.95386,11.7401,12.439,21.5988,11.8423
3.68,23.1598,10.4187,1.9302400000000002,6.16913,1.0788,8.95538,11.7401,12.4405,21.6003,11.8423
3.7,23.1979,10.4202,1.9302400000000002,6.16455,1.07574,8.95691,11.7432,12.4405,21.6019,11.8423
3.72,23.2346,10.4218,1.92718,6.16608,1.07574,8.95386,11.7508,12.4374,21.6003,11.8317
3.74,23.2697,10.4156,1.92718,6.16608,1.0772700000000002,8.95538,11.7523,12.4405,21.6019,11.8271
3.76,23.2956,10.4202,1.92718,6.155390000000001,1.07574,8.95996,11.7554,12.4405,21.6019,11.8301
3.78,23.3307,10.4218,1.9302400000000002,6.1538699999999995,1.07574,8.95538,11.7523,12.4405,21.6019,11.8301
3.8,23.3566,10.4202,1.93176,6.152340000000001,1.0772700000000002,8.95386,11.7493,12.4435,21.5988,11.8256
3.82,23.378,10.4233,1.93176,6.1508199999999995,1.0772700000000002,8.95386,11.7538,12.439,21.6003,11.8301
3.84,23.4039,10.4218,1.92871,6.1538699999999995,1.0742200000000002,8.95386,11.7508,12.439,21.6003,11.8317
3.86,23.4283,10.4202,1.93176,6.152340000000001,1.07574,8.95386,11.7554,12.442,21.6034,11.8286
3.88,23.4543,10.4187,1.92871,6.155390000000001,1.0772700000000002,8.95538,11.7538,12.4405,21.6034,11.8286
3.9,23.4787,10.4187,1.92566,6.152340000000001,1.0772700000000002,8.95691,11.7508,12.439,21.6034,11.8301
3.92,23.5016,10.4172,1.92871,6.152340000000001,1.07574,8.95386,11.7477,12.4374,21.5881,11.8301
3.94,23.5184,10.4218,1.92871,6.155390000000001,1.0742200000000002,8.95538,11.7493,12.442,21.5897,11.8301
3.96,23.5413,10.4187,1.9302400000000002,6.1538699999999995,1.07574,8.95538,11.7508,12.4405,21.5881,11.8256
3.98,23.5565,10.4172,1.9302400000000002,6.155390000000001,1.0742200000000002,8.95538,11.7538,12.439,21.5866,11.8301
4.0,23.5779,10.4218,1.92718,6.1538699999999995,1.07574,8.95386,11.7508,12.4435,21.5866,11.8301
4.02,23.5901,10.4202,1.9332900000000002,6.152340000000001,1.0772700000000002,8.95691,11.7508,12.4405,21.5912,11.8301
4.04,23.6008,10.4172,1.92871,6.1538699999999995,1.0772700000000002,8.95691,11.7523,12.4405,21.5836,11.8317
4.06,23.6023,10.4202,1.92871,6.1538699999999995,1.0803200000000002,8.95233,11.7523,12.439,21.5897,11.8271
4.08,23.6176,10.4202,1.92718,6.1538699999999995,1.0742200000000002,8.95386,11.7554,12.4405,21.5912,11.8271
4.1,23.6267,10.4172,1.9302400000000002,6.1538699999999995,1.0803200000000002,8.95538,11.7493,12.442,21.5881,11.8256
4.12,23.6237,10.4202,1.92871,6.155390000000001,1.0788,8.95843,11.7523,12.4405,21.5881,11.8256
