time(s),100190,100189,100192,100188,200440,100451,100186,100187,110414,100185
0.0,9.08813,4.13208,2.46887,20.7977,-0.12361400000000002,-3.5462800000000003,4.13208,22.0184,9.42535,0.740051
0.02,9.13391,4.13513,2.4704,20.7932,-0.129718,-3.5401800000000003,4.13513,22.0795,9.428410000000001,0.740051
0.04,9.173580000000001,4.13513,2.46735,20.7794,-0.12514,-3.5417099999999997,4.12903,22.142,9.42535,0.7354729999999999
0.06,9.21936,4.13055,2.46887,20.7779,-0.126666,-3.5417099999999997,4.13055,22.1848,9.42383,0.736999
0.08,9.25751,4.14429,2.46887,20.7687,-0.128192,-3.5401800000000003,4.13361,22.2366,9.42688,0.736999
0.1,9.30176,4.14581,2.4704,20.755,-0.126666,-3.5417099999999997,4.13208,22.2839,9.428410000000001,0.738525
0.12,9.34448,4.14429,2.4704,20.755,-0.12514,-3.5432300000000003,4.13513,22.3373,9.42535,0.738525
0.14,9.39484,4.15955,2.47192,20.7458,-0.12208800000000002,-3.5432300000000003,4.13208,22.3679,9.428410000000001,0.738525
0.16,9.43909,4.15497,2.4704,20.7397,-0.126666,-3.5432300000000003,4.13208,22.4075,9.42688,0.740051
0.18,9.50165,4.15802,2.46887,20.7306,-0.126666,-3.5401800000000003,4.13361,22.4442,9.42383,0.733947
0.2,9.55353,4.16717,2.4704,20.7321,-0.126666,-3.55544,4.13055,22.4808,9.42535,0.736999
0.22,9.61304,4.17023,2.46735,20.7184,-0.128192,-3.5569599999999997,4.13361,22.5052,9.42688,0.736999
0.24,9.6756,4.17023,2.4704,20.7199,-0.12361400000000002,-3.5569599999999997,4.13361,22.5388,9.428410000000001,0.736999
0.26,9.73968,4.18091,2.47192,20.7062,-0.126666,-3.5539099999999997,4.13513,22.5677,9.42688,0.738525
0.28,9.80835,4.18091,2.46735,20.7077,-0.126666,-3.5539099999999997,4.13208,22.6044,9.42383,0.736999
0.3,9.89227,4.18243,2.47192,20.6955,-0.129718,-3.55239,4.13208,22.6257,9.428410000000001,0.736999
0.32,9.96246,4.18091,2.46887,20.697,-0.126666,-3.5508599999999997,4.13208,22.6501,9.428410000000001,0.7354729999999999
0.34,10.0525,4.19159,2.4704,20.694000000000003,-0.126666,-3.55239,4.13513,22.6593,9.42688,0.736999
0.36,10.1349,4.19464,2.47192,20.6833,-0.12514,-3.5569599999999997,4.13513,22.6852,9.428410000000001,0.7354729999999999
0.38,10.2234,4.19159,2.46735,20.6818,-0.12208800000000002,-3.5539099999999997,4.13055,22.7036,9.42535,0.740051
0.4,10.3073,4.1961699999999995,2.4704,20.6696,-0.12361400000000002,-3.55239,4.13055,22.7127,9.428410000000001,0.7354729999999999
0.42,10.3973,4.2053199999999995,2.4704,20.6711,-0.12514,-3.5569599999999997,4.13361,22.7219,9.42535,0.738525
0.44,10.4797,4.2053199999999995,2.46582,20.6589,-0.126666,-3.55239,4.13666,22.7356,9.4162,0.736999
0.46,10.552999999999999,4.20685,2.46735,20.6573,-0.12514,-3.5569599999999997,4.13361,22.7402,9.4162,0.7354729999999999
0.48,10.6369,4.20685,2.4704,20.6512,-0.126666,-3.5508599999999997,4.13208,22.7356,9.41467,0.7354729999999999
0.5,10.7132,4.2053199999999995,2.46887,20.6451,-0.12056300000000002,-3.5539099999999997,4.13666,22.7371,9.42688,0.736999
0.52,10.7834,4.21905,2.46582,20.6482,-0.12514,-3.55544,4.13208,22.7356,9.42535,0.736999
0.54,10.8627,4.21905,2.46735,20.6375,-0.12514,-3.55849,4.13513,22.7371,9.42535,0.740051
0.56,10.936,4.21905,2.46887,20.6299,-0.12056300000000002,-3.55544,4.13208,22.7417,9.42688,0.733947
0.58,10.9985,4.22058,2.46582,20.6207,-0.126666,-3.55849,4.13513,22.7234,9.428410000000001,0.736999
0.6,11.0641,4.21753,2.46887,20.6223,-0.12514,-3.55544,4.13208,22.7249,9.428410000000001,0.738525
0.62,11.1343,4.21905,2.46887,20.61,-0.128192,-3.5569599999999997,4.13361,22.7173,9.42688,0.736999
0.64,11.1908,4.21905,2.47192,20.6085,-0.129718,-3.5539099999999997,4.13361,22.7127,9.42535,0.736999
0.66,11.2503,4.21905,2.46887,20.5978,-0.12208800000000002,-3.55239,4.13513,22.701999999999998,9.42383,0.736999
0.68,11.3205,4.2297400000000005,2.46735,20.6009,-0.12514,-3.5539099999999997,4.13208,22.699,9.4223,0.738525
0.7,11.3861,4.2327900000000005,2.4704,20.5856,-0.12514,-3.55239,4.13361,22.6868,9.42688,0.740051
0.72,11.4609,4.2297400000000005,2.46735,20.5856,-0.12514,-3.5539099999999997,4.13055,22.6746,9.41467,0.738525
0.74,11.5448,4.23126,2.46887,20.575,-0.126666,-3.5508599999999997,4.13513,22.6624,9.41315,0.736999
0.76,11.618,4.2297400000000005,2.46735,20.5734,-0.12361400000000002,-3.5691699999999997,4.13055,22.6379,9.41772,0.7354729999999999
0.78,11.702,4.240419999999999,2.46735,20.5612,-0.12361400000000002,-3.5691699999999997,4.13208,22.6257,9.41772,0.736999
0.8,11.7828,4.243469999999999,2.4704,20.5582,-0.12514,-3.56459,4.13055,22.6044,9.41315,0.736999
0.82,11.8759,4.2419400000000005,2.46887,20.546,-0.12514,-3.56765,4.13666,22.5891,9.41315,0.738525
0.84,11.9583,4.2449900000000005,2.46735,20.5475,-0.12514,-3.5661199999999997,4.13666,22.5647,9.41467,0.738525
0.86,12.0575,4.240419999999999,2.46887,20.5338,-0.12361400000000002,-3.5661199999999997,4.13208,22.5464,9.41467,0.733947
0.88,12.1597,4.2419400000000005,2.46429,20.5383,-0.126666,-3.56765,4.13666,22.5296,9.41315,0.738525
0.9,12.2665,4.240419999999999,2.46887,20.5261,-0.12514,-3.5661199999999997,4.13208,22.5067,9.41467,0.736999
0.92,12.3657,4.252619999999999,2.46735,20.5231,-0.12514,-3.5630699999999997,4.13208,22.4777,9.41315,0.738525
0.94,12.470999999999998,4.25415,2.4704,20.5078,-0.12208800000000002,-3.5661199999999997,4.13208,22.4579,9.41315,0.7354729999999999
0.96,12.5748,4.25873,2.46735,20.5109,-0.12361400000000002,-3.56459,4.13208,22.4426,9.41467,0.738525
0.98,12.6724,4.2572,2.4704,20.4971,-0.128192,-3.5661199999999997,4.13055,22.4197,9.41162,0.7354729999999999
1.0,12.7716,4.26788,2.46735,20.4987,-0.12514,-3.5691699999999997,4.13513,22.3938,9.41467,0.741577
1.02,12.8723,4.26636,2.46887,20.4864,-0.12514,-3.5768,4.13208,22.3694,9.4162,0.740051
1.04,12.9745,4.26483,2.46887,20.4895,-0.12361400000000002,-3.5768,4.13208,22.345,9.4162,0.740051
1.06,13.0722,4.26636,2.4704,20.4742,-0.129718,-3.57985,4.13208,22.3083,9.4162,0.736999
1.08,13.1577,4.26941,2.46887,20.4742,-0.12514,-3.57985,4.13513,22.2824,9.41315,0.733947
1.1,13.2599,4.26636,2.46582,20.462,-0.12361400000000002,-3.57985,4.13361,22.2641,9.4162,0.738525
1.12,13.3438,4.281619999999999,2.46735,20.4498,-0.126666,-3.5783300000000002,4.13055,22.2351,9.41315,0.733947
1.14,13.4354,4.27704,2.46582,20.4483,-0.12514,-3.5813800000000002,4.13208,22.2031,9.4162,0.736999
1.16,13.5345,4.27704,2.46735,20.4376,-0.12514,-3.5813800000000002,4.13513,22.1725,9.41315,0.736999
1.18,13.6368,4.28314,2.46582,20.4361,-0.12514,-3.5768,4.13361,22.1527,9.41009,0.736999
1.2,13.7253,4.28009,2.46735,20.4269,-0.12514,-3.5813800000000002,4.13055,22.1252,9.4162,0.7354729999999999
1.22,13.8229,4.27856,2.46735,20.4269,-0.12514,-3.5813800000000002,4.13055,22.0932,9.41315,0.736999
1.24,13.9206,4.27704,2.4704,20.4132,-0.126666,-3.57985,4.13513,22.0627,9.4162,0.7354729999999999
1.26,14.0182,4.2923,2.46735,20.4086,-0.12361400000000002,-3.5813800000000002,4.13361,22.0398,9.41315,0.738525
1.28,14.1266,4.28925,2.47192,20.4117,-0.12361400000000002,-3.5783300000000002,4.13666,22.0001,9.41467,0.736999
1.3,14.2227,4.293819999999999,2.46887,20.401,-0.12361400000000002,-3.57985,4.13361,21.9788,9.42383,0.733947
1.32,14.3188,4.293819999999999,2.46735,20.4041,-0.12361400000000002,-3.57985,4.13055,21.9498,9.42535,0.736999
1.34,14.4196,4.2923,2.4704,20.3888,-0.12361400000000002,-3.5783300000000002,4.13208,21.9177,9.428410000000001,0.736999
1.36,14.5142,4.287719999999999,2.4704,20.3857,-0.128192,-3.5768,4.13208,21.8948,9.42535,0.738525
1.38,14.6042,4.28925,2.46735,20.3888,-0.12208800000000002,-3.5813800000000002,4.13055,21.8719,9.428410000000001,0.740051
1.4,14.6866,4.293819999999999,2.46735,20.3735,-0.126666,-3.5783300000000002,4.13513,21.8353,9.42688,0.740051
1.42,14.7736,4.29535,2.46887,20.3751,-0.12514,-3.5813800000000002,4.13513,21.8079,9.42535,0.7354729999999999
1.44,14.8682,4.302980000000001,2.46887,20.3751,-0.126666,-3.5783300000000002,4.13055,21.785,9.42383,0.738525
1.46,14.9597,4.302980000000001,2.46887,20.3659,-0.126666,-3.5783300000000002,4.13361,21.7606,9.42688,0.738525
1.48,15.0604,4.302980000000001,2.46735,20.3644,-0.12514,-3.5813800000000002,4.13055,21.7377,9.44214,0.733947
1.5,15.1642,4.306030000000001,2.46887,20.3659,-0.129718,-3.57985,4.13513,21.6995,9.43909,0.736999
1.52,15.2771,4.3045,2.46582,20.3537,-0.126666,-3.5783300000000002,4.13208,21.6766,9.437560000000001,0.736999
1.54,15.3961,4.302980000000001,2.46887,20.3506,-0.128192,-3.5813800000000002,4.13666,21.6492,9.440610000000001,0.738525
1.56,15.5075,4.3045,2.46887,20.3506,-0.128192,-3.57985,4.13208,21.6171,9.43909,0.733947
1.58,15.6281,4.306030000000001,2.46582,20.3415,-0.129718,-3.5813800000000002,4.13208,21.5881,9.440610000000001,0.7354729999999999
1.6,15.7532,4.30145,2.45819,20.3384,-0.12514,-3.5813800000000002,4.13513,21.5637,9.440610000000001,0.7354729999999999
1.62,15.8691,4.31366,2.4704,20.3293,-0.12361400000000002,-3.5813800000000002,4.13361,21.5424,9.44214,0.740051
1.64,15.9958,4.31671,2.45819,20.3278,-0.126666,-3.59511,4.13513,21.5149,9.440610000000001,0.740051
1.66,16.1255,4.31671,2.46124,20.3262,-0.12514,-3.5935900000000003,4.13666,21.489,9.44214,0.738525
1.68,16.2628,4.31671,2.46582,20.3156,-0.12514,-3.58901,4.13361,21.4645,9.43909,0.7354729999999999
1.7,16.4032,4.315180000000001,2.47192,20.3156,-0.12514,-3.5935900000000003,4.13513,21.4416,9.440610000000001,0.7354729999999999
1.72,16.5482,4.31976,2.46887,20.3125,-0.12514,-3.5966400000000003,4.13208,21.4066,9.440610000000001,0.738525
1.74,16.6931,4.315180000000001,2.46887,20.3156,-0.12514,-3.5935900000000003,4.13666,21.3821,9.437560000000001,0.7354729999999999
1.76,16.8381,4.315180000000001,2.46887,20.2988,-0.12514,-3.5935900000000003,4.13208,21.3562,9.443660000000001,0.738525
1.78,16.9861,4.33044,2.46735,20.3018,-0.12514,-3.5935900000000003,4.13208,21.3318,9.42993,0.736999
1.8,17.1265,4.3335,2.4704,20.3049,-0.126666,-3.59053,4.13055,21.3074,9.428410000000001,0.738525
1.82,17.2592,4.32281,2.46887,20.2911,-0.12514,-3.58901,4.13055,21.2952,9.42535,0.7354729999999999
1.84,17.392,4.32739,2.46887,20.2911,-0.128192,-3.59206,4.13361,21.2708,9.428410000000001,0.736999
1.86,17.5156,4.33044,2.46582,20.2896,-0.12514,-3.59206,4.13361,21.2448,9.42993,0.736999
1.88,17.6407,4.32739,2.46887,20.2759,-0.12514,-3.5935900000000003,4.13055,21.2326,9.42688,0.736999
1.9,17.7597,4.32892,2.46735,20.2789,-0.12361400000000002,-3.59206,4.13361,21.2067,9.42535,0.740051
1.92,17.8833,4.33655,2.46887,20.2652,-0.12056300000000002,-3.59053,4.13513,21.195999999999998,9.42993,0.736999
1.94,17.9916,4.34112,2.4704,20.2637,-0.126666,-3.59206,4.13055,21.1731,9.42993,0.7354729999999999
1.96,18.1107,4.3396,2.46887,20.2652,-0.12514,-3.59206,4.13361,21.1487,9.42688,0.736999
1.98,18.2327,4.3396,2.46735,20.2576,-0.126666,-3.5935900000000003,4.13361,21.1349,9.428410000000001,0.740051
2.0,18.3563,4.34265,2.4704,20.253,-0.12361400000000002,-3.58901,4.13666,21.1121,9.428410000000001,0.740051
2.02,18.4799,4.34112,2.46887,20.2545,-0.128192,-3.59206,4.13361,21.1029,9.4162,0.7354729999999999
2.04,18.6005,4.34112,2.46735,20.253,-0.12514,-3.59206,4.13513,21.0724,9.4162,0.741577
2.06,18.7241,4.3396,2.46735,20.2423,-0.12514,-3.59206,4.13513,21.051,9.41162,0.738525
2.08,18.837,4.353330000000001,2.46735,20.2438,-0.12208800000000002,-3.59206,4.11835,21.0373,9.4162,0.733947
2.1,18.9453,4.353330000000001,2.4704,20.2438,-0.12208800000000002,-3.59206,4.11835,21.0159,9.41467,0.733947
2.12,19.0552,4.3518099999999995,2.46887,20.2286,-0.128192,-3.59206,4.12292,20.9976,9.41925,0.736999
2.14,19.1559,4.353330000000001,2.45819,20.2301,-0.128192,-3.59206,4.11987,20.9763,9.41162,0.7354729999999999
2.16,19.2505,4.3518099999999995,2.46735,20.2225,-0.12208800000000002,-3.59206,4.12292,20.9625,9.40094,0.736999
2.18,19.3573,4.3640099999999995,2.46887,20.2225,-0.12514,-3.5966400000000003,4.12445,20.9412,9.40094,0.736999
2.2,19.458,4.36554,2.45666,20.2179,-0.12208800000000002,-3.5935900000000003,4.12292,20.929000000000002,9.399410000000001,0.736999
2.22,19.5572,4.36859,2.46887,20.2194,-0.12361400000000002,-3.5935900000000003,4.13513,20.9137,9.40399,0.7354729999999999
2.24,19.6518,4.36554,2.46887,20.2042,-0.126666,-3.59053,4.13361,20.9061,9.40094,0.738525
2.26,19.7403,4.36249,2.4704,20.2072,-0.126666,-3.58901,4.11682,20.8786,9.40247,0.7354729999999999
2.28,19.8257,4.36554,2.4704,20.2087,-0.128192,-3.59206,4.1214,20.8694,9.40094,0.7354729999999999
2.3,19.9112,4.3640099999999995,2.47192,20.192,-0.128192,-3.5768,4.11987,20.8542,9.393310000000001,0.738525
2.32,20.0012,4.36249,2.45514,20.195,-0.12514,-3.5768,4.11835,20.8405,9.390260000000001,0.736999
2.34,20.0821,4.36554,2.46277,20.195,-0.126666,-3.5783300000000002,4.1214,20.8282,9.38873,0.738525
2.36,20.1691,4.36249,2.46887,20.1797,-0.126666,-3.5783300000000002,4.12445,20.8069,9.39178,0.7354729999999999
2.38,20.2469,4.37622,2.46735,20.1797,-0.12514,-3.57985,4.11835,20.7932,9.38873,0.736999
2.4,20.3262,4.37775,2.46887,20.1813,-0.128192,-3.5783300000000002,4.11682,20.784000000000002,9.390260000000001,0.7354729999999999
2.42,20.4025,4.37469,2.46582,20.1675,-0.12514,-3.5783300000000002,4.12292,20.7703,9.39178,0.7354729999999999
2.44,20.4773,4.37622,2.4704,20.1721,-0.126666,-3.56459,4.11987,20.7458,9.390260000000001,0.733947
2.46,20.5597,4.37622,2.46887,20.1691,-0.12361400000000002,-3.5661199999999997,4.12292,20.7336,9.387210000000001,0.733947
2.48,20.6451,4.37927,2.47192,20.1599,-0.126666,-3.5691699999999997,4.11987,20.7184,9.38873,0.740051
2.5,20.7291,4.37775,2.4704,20.1553,-0.126666,-3.5661199999999997,4.11835,20.7077,9.39178,0.736999
2.52,20.8145,4.37775,2.4704,20.1431,-0.12208800000000002,-3.5569599999999997,4.11987,20.697,9.39178,0.7354729999999999
2.54,20.9061,4.37775,2.46582,20.1447,-0.126666,-3.5569599999999997,4.12292,20.6818,9.390260000000001,0.741577
2.56,20.9961,4.37622,2.4704,20.1309,-0.12514,-3.55849,4.12292,20.6696,9.39178,0.736999
2.58,21.0846,4.37775,2.46735,20.1294,-0.12514,-3.5508599999999997,4.12292,20.6558,9.39178,0.738525
2.6,21.166999999999998,4.37775,2.46735,20.1172,-0.12514,-3.5401800000000003,4.12292,20.6467,9.39178,0.738525
2.62,21.2463,4.3884300000000005,2.46735,20.1202,-0.12361400000000002,-3.5417099999999997,4.1214,20.6329,9.393310000000001,0.736999
2.64,21.3318,4.38385,2.4704,20.1141,-0.126666,-3.53102,4.12292,20.639,9.39178,0.736999
2.66,21.4172,4.38995,2.46582,20.1096,-0.126666,-3.5295,4.1214,20.6253,9.38873,0.738525
2.68,21.4951,4.3884300000000005,2.46887,20.105,-0.12514,-3.52645,4.12292,20.6085,9.387210000000001,0.736999
2.7,21.5622,4.3869,2.46887,20.1096,-0.12361400000000002,-3.51729,4.1214,20.6116,9.39178,0.736999
2.72,21.6248,4.3853800000000005,2.46887,20.0943,-0.12056300000000002,-3.51729,4.1214,20.5978,9.399410000000001,0.7354729999999999
2.74,21.6827,4.38995,2.46735,20.0974,-0.126666,-3.50661,4.1214,20.5811,9.40094,0.738525
2.76,21.7316,4.38995,2.46887,20.0958,-0.12514,-3.50661,4.1214,20.5811,9.40399,0.741577
2.78,21.7819,4.38995,2.4704,20.0806,-0.12514,-3.4989800000000004,4.1214,20.5719,9.40247,0.738525
2.8,21.8216,4.4006300000000005,2.46887,20.0821,-0.12361400000000002,-3.4928800000000004,4.1214,20.5643,9.40247,0.738525
2.82,21.8704,4.39911,2.46887,20.0867,-0.12514,-3.4928800000000004,4.12292,20.546,9.40094,0.736999
2.84,21.9162,4.4006300000000005,2.47192,20.0821,-0.128192,-3.47914,4.11987,20.5383,9.40704,0.736999
2.86,21.9681,4.396059999999999,2.46887,20.0699,-0.128192,-3.47304,4.1214,20.5246,9.40247,0.736999
2.88,22.0184,4.4006300000000005,2.47192,20.0684,-0.126666,-3.46846,4.11987,20.5154,9.40094,0.740051
2.9,22.0673,4.41284,2.46887,20.0684,-0.126666,-3.45778,4.11835,20.5063,9.40094,0.7354729999999999
2.92,22.1146,4.41589,2.4704,20.0592,-0.12514,-3.45778,4.11835,20.4971,9.40094,0.736999
2.94,22.1588,4.41589,2.46887,20.0592,-0.12514,-3.44405,4.12292,20.4895,9.40399,0.7354729999999999
2.96,22.1985,4.41437,2.46887,20.0562,-0.126666,-3.44558,4.11987,20.4773,9.40247,0.740051
2.98,22.2351,4.41437,2.46887,20.05,-0.12514,-3.4333699999999996,4.11987,20.4575,9.40094,0.733947
3.0,22.2733,4.42505,2.4704,20.0455,-0.126666,-3.41811,4.11835,20.4498,9.40094,0.733947
3.02,22.3114,4.42505,2.4704,20.0439,-0.12361400000000002,-3.42116,4.1214,20.4376,9.40094,0.7354729999999999
3.04,22.345,4.42505,2.46887,20.0439,-0.126666,-3.40743,4.1214,20.4254,9.40247,0.738525
3.06,22.3801,4.43878,2.46887,20.0317,-0.126666,-3.39675,4.1214,20.4254,9.40247,0.7354729999999999
3.08,22.4182,4.44031,2.4704,20.0317,-0.12514,-3.3982699999999997,4.12292,20.4163,9.40552,0.736999
3.1,22.4426,4.43878,2.46735,20.0317,-0.128192,-3.3860699999999997,4.1214,20.401,9.40094,0.738525
3.12,22.467,4.43878,2.46735,20.0348,-0.12514,-3.37996,4.1214,20.3888,9.399410000000001,0.738525
3.14,22.493000000000002,4.44946,2.4704,20.0211,-0.128192,-3.3723300000000003,4.11835,20.3781,9.40247,0.7354729999999999
3.16,22.5159,4.44641,2.46887,20.0195,-0.12514,-3.3753900000000003,4.12292,20.3781,9.40399,0.736999
3.18,22.5296,4.44794,2.46887,20.0226,-0.128192,-3.3601300000000003,4.11835,20.3644,9.40094,0.738525
3.2,22.554000000000002,4.45099,2.4704,20.0226,-0.12361400000000002,-3.36165,4.11987,20.3522,9.40247,0.7354729999999999
3.22,22.5647,4.46167,2.47345,20.0088,-0.128192,-3.34487,4.11987,20.3552,9.40704,0.736999
3.24,22.5693,4.46472,2.46582,20.0088,-0.12514,-3.34639,4.12292,20.34,9.40094,0.7354729999999999
3.26,22.5784,4.46625,2.4704,20.0088,-0.12361400000000002,-3.34639,4.11987,20.3262,9.40094,0.7354729999999999
3.28,22.5952,4.47693,2.46735,20.0119,-0.12514,-3.33724,4.11987,20.3293,9.40094,0.738525
3.3,22.5952,4.4754,2.46735,19.9982,-0.12514,-3.3357099999999997,4.11987,20.3201,9.40399,0.736999
3.32,22.6044,4.48914,2.46887,19.9966,-0.128192,-3.3219800000000004,4.11987,20.3033,9.40399,0.738525
3.34,22.6151,4.48914,2.46735,19.9982,-0.12361400000000002,-3.3235099999999997,4.11987,20.2972,9.40399,0.7354729999999999
3.36,22.6166,4.48761,2.46735,19.9997,-0.126666,-3.31282,4.1214,20.2896,9.40247,0.740051
3.38,22.6151,4.49829,2.4704,19.9951,-0.12514,-3.3158800000000004,4.12292,20.2805,9.41162,0.740051
3.4,22.6151,4.50134,2.46735,19.9936,-0.12514,-3.30062,4.12292,20.2805,9.41772,0.736999
3.42,22.6273,4.50439,2.46735,19.9844,-0.128192,-3.29757,4.12292,20.2652,9.41315,0.740051
3.44,22.6288,4.5105,2.46582,19.9844,-0.12514,-3.29757,4.11987,20.253,9.4162,0.738525
3.46,22.6273,4.5105,2.46735,19.989,-0.128192,-3.28536,4.12292,20.2545,9.4162,0.736999
3.48,22.6273,4.52576,2.46887,19.9722,-0.12361400000000002,-3.2838300000000005,4.11987,20.2438,9.41772,0.736999
3.5,22.6273,4.52423,2.46735,19.9722,-0.12514,-3.2762,4.11987,20.2408,9.428410000000001,0.738525
3.52,22.6364,4.5227,2.4704,19.9738,-0.12514,-3.2762,4.11835,20.2301,9.42383,0.738525
3.54,22.6395,4.52423,2.46887,19.96,-0.12361400000000002,-3.26094,4.11835,20.2194,9.42383,0.736999
3.56,22.6532,4.53644,2.4704,19.9631,-0.126666,-3.26247,4.11987,20.2194,9.42688,0.736999
3.58,22.6517,4.53796,2.46887,19.9585,-0.126666,-3.25179,4.11987,20.2072,9.428410000000001,0.733947
3.6,22.6654,4.53796,2.46735,19.96,-0.12208800000000002,-3.25179,4.11987,20.1935,9.42688,0.733947
3.62,22.6776,4.54559,2.4704,19.9493,-0.12208800000000002,-3.25179,4.1214,20.1904,9.42535,0.736999
3.64,22.6868,4.54712,2.46887,19.9478,-0.128192,-3.23958,4.12598,20.1813,9.42688,0.736999
3.66,22.6868,4.54712,2.46582,19.9493,-0.12361400000000002,-3.235,4.12292,20.1691,9.428410000000001,0.7354729999999999
3.68,22.7036,4.56085,2.46735,19.9371,-0.12514,-3.2228,4.1214,20.1538,9.440610000000001,0.733947
3.7,22.701999999999998,4.56085,2.4704,19.9387,-0.126666,-3.22432,4.11987,20.1523,9.437560000000001,0.738525
3.72,22.701999999999998,4.57458,2.4704,19.9371,-0.12514,-3.22432,4.12292,20.1431,9.44214,0.736999
3.74,22.7005,4.57001,2.4704,19.9265,-0.12361400000000002,-3.20906,4.1214,20.134,9.44214,0.736999
3.76,22.6974,4.5852699999999995,2.46887,19.9249,-0.128192,-3.2105900000000003,4.11682,20.1279,9.437560000000001,0.736999
3.78,22.7051,4.5852699999999995,2.46887,19.9265,-0.126666,-3.2014299999999998,4.12292,20.1172,9.440610000000001,0.741577
3.8,22.6883,4.5852699999999995,2.46887,19.9158,-0.12514,-3.19838,4.11835,20.1065,9.43603,0.738525
3.82,22.6883,4.6005199999999995,2.46429,19.9127,-0.126666,-3.20296,4.11835,20.108,9.440610000000001,0.740051
