time(s),110449,100307,200391,100314,100312,100310,100309,100311,100308,100313
0.0,39.3494,6.6543600000000005,8.421330000000001,3.13415,19.3451,5.18494,11.1267,0.9033200000000001,2.60773,13.4125
0.02,39.3143,6.6574100000000005,8.427430000000001,3.13415,19.3451,5.18494,11.1252,0.9002680000000001,2.60925,13.4125
0.04,39.2654,6.6574100000000005,8.4259,3.13415,19.3329,5.18494,11.1267,0.9033200000000001,2.6062,13.4003
0.06,39.2303,6.6543600000000005,8.4259,3.13263,19.3298,5.18646,11.1252,0.9017940000000001,2.6123,13.4033
0.08,39.1861,6.6543600000000005,8.427430000000001,3.13263,19.3329,5.18951,11.1267,0.9033200000000001,2.6062,13.4018
0.1,39.1464,6.652830000000001,8.421330000000001,3.13263,19.3192,5.18646,11.1298,0.9033200000000001,2.6062,13.4018
0.12,39.0915,6.652830000000001,8.421330000000001,3.13568,19.3192,5.18494,11.1267,0.9033200000000001,2.61078,13.4018
0.14,39.061,6.6543600000000005,8.424380000000001,3.13568,19.3222,5.18646,11.1298,0.9002680000000001,2.60925,13.4003
0.16,39.0091,6.652830000000001,8.4198,3.13263,19.3085,5.18341,11.1252,0.9002680000000001,2.6062,13.4018
0.18,38.9618,6.652830000000001,8.4259,3.13415,19.3069,5.18494,11.1267,0.9002680000000001,2.6062,13.4018
0.2,38.9114,6.66962,8.42285,3.13263,19.2917,5.18646,11.1282,0.9017940000000001,2.60773,13.4003
0.22,38.8626,6.66962,8.42285,3.13263,19.2932,5.18799,11.1282,0.9017940000000001,2.6062,13.4018
0.24,38.8016,6.668089999999999,8.424380000000001,3.13721,19.2841,5.18799,11.1298,0.9048459999999999,2.61383,13.4018
0.26,38.7512,6.668089999999999,8.42285,3.13415,19.2795,5.18341,11.1282,0.9017940000000001,2.60773,13.4003
0.28,38.7054,6.668089999999999,8.40912,3.13415,19.2841,5.18646,11.1313,0.9002680000000001,2.60773,13.4033
0.3,38.6444,6.665039999999999,8.40912,3.13263,19.2703,5.18646,11.1252,0.9033200000000001,2.60773,13.4048
0.32,38.5925,6.668089999999999,8.41217,3.13263,19.2688,5.18799,11.1267,0.9048459999999999,2.60773,13.4033
0.34,38.5422,6.6665600000000005,8.40912,3.13415,19.2551,5.18646,11.1298,0.9048459999999999,2.60773,13.4018
0.36,38.4949,6.6665600000000005,8.41217,3.13415,19.2581,5.18646,11.1267,0.9017940000000001,2.60773,13.4033
0.38,38.4476,6.6665600000000005,8.410639999999999,3.13568,19.2459,5.18799,11.1267,0.9017940000000001,2.60773,13.3987
0.4,38.3987,6.668089999999999,8.41217,3.1311,19.2444,5.18799,11.1282,0.9017940000000001,2.61078,13.4033
0.42,38.3621,6.668089999999999,8.410639999999999,3.13415,19.2322,5.18646,11.1389,0.9033200000000001,2.60773,13.4033
0.44,38.3087,6.668089999999999,8.4137,3.1311,19.2368,5.18646,11.1252,0.9017940000000001,2.6062,13.4018
0.46,38.2645,6.668089999999999,8.41522,3.1311,19.2245,5.18494,11.142000000000001,0.9002680000000001,2.60925,13.4018
0.48,38.2141,6.6665600000000005,8.4137,3.13568,19.2139,5.18646,11.1298,0.9033200000000001,2.60925,13.3987
0.5,38.176,6.6665600000000005,8.40912,3.13568,19.2108,5.18494,11.1282,0.9033200000000001,2.60773,13.4033
0.52,38.1271,6.665039999999999,8.41217,3.1311,19.1971,5.18646,11.1282,0.9063709999999999,2.59552,13.4018
0.54,38.0798,6.665039999999999,8.41217,3.12805,19.2001,5.18341,11.1282,0.9033200000000001,2.59552,13.4033
0.56,38.0432,6.668089999999999,8.41217,3.12958,19.1864,5.18799,11.1252,0.9048459999999999,2.59552,13.4018
0.58,38.001999999999995,6.668089999999999,8.410639999999999,3.13415,19.1864,5.18494,11.1282,0.9033200000000001,2.59705,13.4018
0.6,37.9593,6.6665600000000005,8.41522,3.13263,19.1727,5.18799,11.1282,0.9017940000000001,2.59247,13.3987
0.62,37.9181,6.6635100000000005,8.410639999999999,3.13263,19.1757,5.18494,11.1252,0.9033200000000001,2.5939900000000002,13.4033
0.64,37.883,6.668089999999999,8.410639999999999,3.13415,19.1681,5.18646,11.1267,0.9048459999999999,2.59552,13.4033
0.66,37.8479,6.668089999999999,8.40912,3.13415,19.162,5.18494,11.1282,0.898742,2.59552,13.4033
0.68,37.8113,6.665039999999999,8.39996,3.13568,19.1605,5.18646,11.1267,0.907897,2.59247,13.4018
0.7,37.7701,6.668089999999999,8.39996,3.1311,19.1452,5.18646,11.1282,0.9048459999999999,2.59552,13.3987
0.72,37.7472,6.6665600000000005,8.398439999999999,3.13415,19.1498,5.18341,11.1282,0.9048459999999999,2.59552,13.3987
0.74,37.7151,6.665039999999999,8.398439999999999,3.13568,19.1406,5.18951,11.1313,0.9048459999999999,2.59552,13.4018
0.76,37.6892,6.6665600000000005,8.398439999999999,3.13721,19.1345,5.18799,11.1282,0.9033200000000001,2.59247,13.4018
0.78,37.6617,6.66962,8.39996,3.13263,19.136,5.18494,11.1252,0.9017940000000001,2.59552,13.4018
0.8,37.6419,6.668089999999999,8.39691,3.13721,19.1269,5.18341,11.1282,0.9048459999999999,2.5939900000000002,13.4018
0.82,37.6251,6.66962,8.39691,3.13263,19.1269,5.20325,11.1282,0.9033200000000001,2.59705,13.4018
0.84,37.6144,6.668089999999999,8.39996,3.13415,19.1223,5.19714,11.1298,0.9048459999999999,2.5939900000000002,13.4048
0.86,37.6022,6.668089999999999,8.398439999999999,3.13415,19.1132,5.19867,11.1282,0.9002680000000001,2.59552,13.4048
0.88,37.59,6.6665600000000005,8.398439999999999,3.13721,19.1147,5.20019,11.1282,0.9048459999999999,2.5848400000000002,13.4018
0.9,37.5931,6.66962,8.39996,3.13263,19.1162,5.19867,11.1298,0.9033200000000001,2.5848400000000002,13.4018
0.92,37.59,6.668089999999999,8.39996,3.13568,19.1116,5.19714,11.1252,0.9017940000000001,2.58331,13.4033
0.94,37.59,6.668089999999999,8.401489999999999,3.13263,19.101,5.19714,11.1267,0.9002680000000001,2.58331,13.4003
0.96,37.5931,6.665039999999999,8.398439999999999,3.13263,19.1162,5.19867,11.1282,0.9017940000000001,2.5848400000000002,13.4003
0.98,37.5931,6.665039999999999,8.398439999999999,3.13568,19.1101,5.19714,11.1282,0.9017940000000001,2.58331,13.4033
1.0,37.59,6.668089999999999,8.38928,3.13263,19.1162,5.19562,11.1282,0.9048459999999999,2.5848400000000002,13.4048
1.02,37.6022,6.668089999999999,8.38776,3.13415,19.1147,5.19867,11.1267,0.9002680000000001,2.58636,13.4003
1.04,37.6129,6.6665600000000005,8.38623,3.1311,19.1269,5.20325,11.1282,0.9017940000000001,2.5848400000000002,13.3987
1.06,37.6297,6.668089999999999,8.38776,3.13263,19.1238,5.19714,11.1298,0.9017940000000001,2.58331,13.4018
1.08,37.6389,6.6803,8.38776,3.13263,19.1391,5.20019,11.1267,0.9033200000000001,2.5848400000000002,13.3987
1.1,37.6648,6.674189999999999,8.38623,3.13415,19.1483,5.19867,11.1267,0.9017940000000001,2.5848400000000002,13.3987
1.12,37.6755,6.67877,8.38928,3.13721,19.162,5.20019,11.1298,0.9017940000000001,2.58331,13.4018
1.14,37.6984,6.68182,8.39081,3.13568,19.1727,5.19714,11.1282,0.9063709999999999,2.5817900000000003,13.4018
1.16,37.7274,6.67725,8.38623,3.13568,19.1849,5.19867,11.1191,0.9017940000000001,2.5848400000000002,13.3987
1.18,37.7502,6.67877,8.3847,3.13263,19.2108,5.20019,11.1145,0.9048459999999999,2.58331,13.4018
1.2,37.7762,6.67572,8.38623,3.13415,19.2261,5.19867,11.113,0.9048459999999999,2.58331,13.4048
1.22,37.7991,6.67725,8.38623,3.13568,19.2429,5.19714,11.1145,0.9017940000000001,2.58636,13.4033
1.24,37.8235,6.67877,8.3847,3.13415,19.2688,5.20019,11.116,0.9017940000000001,2.58331,13.4033
1.26,37.8433,6.6803,8.38776,3.13263,19.2963,5.19867,11.113,0.9017940000000001,2.5817900000000003,13.4033
1.28,37.8632,6.67877,8.38623,3.1311,19.3222,5.20172,11.116,0.9002680000000001,2.5817900000000003,13.4064
1.3,37.883,6.67572,8.38318,3.13263,19.3451,5.19714,11.1145,0.9033200000000001,2.5848400000000002,13.4003
1.32,37.8983,6.68182,8.38776,3.1311,19.368,5.19867,11.116,0.9017940000000001,2.5848400000000002,13.4018
1.34,37.9135,6.67725,8.39081,3.13263,19.3832,5.20172,11.1145,0.9002680000000001,2.5726299999999998,13.4018
1.36,37.9196,6.67725,8.38928,3.13415,19.4046,5.19714,11.113,0.9002680000000001,2.5726299999999998,13.3987
1.38,37.9318,6.6803,8.38776,3.13568,19.4321,5.20172,11.1176,0.9033200000000001,2.57111,13.4018
1.4,37.9288,6.67572,8.38776,3.13263,19.4519,5.19562,11.113,0.9017940000000001,2.57111,13.4018
1.42,37.944,6.6803,8.39081,3.13263,19.4778,5.20172,11.116,0.898742,2.5695799999999998,13.4003
1.44,37.9471,6.6803,8.38928,3.13568,19.5023,5.19867,11.1176,0.9033200000000001,2.5695799999999998,13.4033
1.46,37.944,6.67877,8.3847,3.13415,19.5267,5.20019,11.116,0.9017940000000001,2.57111,13.4003
1.48,37.944,6.6803,8.3847,3.13415,19.5526,5.19562,11.113,0.9017940000000001,2.5695799999999998,13.4018
1.5,37.9364,6.67877,8.38928,3.1311,19.5633,5.20019,11.1099,0.9033200000000001,2.57111,13.3987
1.52,37.9227,6.67877,8.3847,3.13873,19.5877,5.19867,11.1191,0.9033200000000001,2.57111,13.414000000000001
1.54,37.9089,6.67572,8.38623,3.13263,19.5984,5.19867,11.116,0.9002680000000001,2.57416,13.4155
1.56,37.8952,6.668089999999999,8.38623,3.13263,19.6259,5.19714,11.116,0.9017940000000001,2.56805,13.4155
1.58,37.885999999999996,6.6665600000000005,8.39081,3.13568,19.6396,5.19867,11.116,0.9017940000000001,2.5695799999999998,13.414000000000001
1.6,37.8616,6.6665600000000005,8.38623,3.13415,19.6503,5.20019,11.116,0.9033200000000001,2.5726299999999998,13.4262
1.62,37.8403,6.66962,8.39081,3.13263,19.6625,5.19867,11.1099,0.9048459999999999,2.5695799999999998,13.4277
1.64,37.821999999999996,6.67572,8.38928,3.13263,19.6686,5.19867,11.1145,0.9048459999999999,2.57111,13.4262
1.66,37.7884,6.67877,8.38928,3.13263,19.6869,5.19714,11.113,0.9048459999999999,2.5726299999999998,13.4232
1.68,37.7579,6.67725,8.37707,3.1311,19.6991,5.19714,11.116,0.9017940000000001,2.57111,13.4262
1.7,37.7258,6.68182,8.37402,3.13415,19.7098,5.19714,11.1053,0.9033200000000001,2.57111,13.4277
1.72,37.6923,6.67725,8.37555,3.13263,19.7144,5.20019,11.1038,0.9033200000000001,2.5726299999999998,13.4262
1.74,37.6526,6.67877,8.37402,3.13415,19.7235,5.19714,11.1038,0.9002680000000001,2.5695799999999998,13.4277
1.76,37.619,6.67877,8.37402,3.1311,19.725,5.19714,11.1038,0.9017940000000001,2.5726299999999998,13.4399
1.78,37.5793,6.67725,8.37402,3.13415,19.7357,5.19867,11.1053,0.9002680000000001,2.5695799999999998,13.4369
1.8,37.5427,6.68182,8.37402,3.1311,19.7357,5.19714,11.1038,0.9002680000000001,2.5695799999999998,13.4369
1.82,37.5183,6.67877,8.37402,3.13873,19.750999999999998,5.20172,11.1053,0.9017940000000001,2.57111,13.4399
1.84,37.4802,6.67877,8.37707,3.1311,19.7479,5.20019,11.1008,0.9033200000000001,2.57111,13.4369
1.86,37.4435,6.67725,8.37402,3.13263,19.7617,5.19867,11.1008,0.9002680000000001,2.5695799999999998,13.4369
1.88,37.4176,6.665039999999999,8.37402,3.13263,19.7617,5.20019,11.1023,0.9017940000000001,2.57111,13.4369
1.9,37.3947,6.668089999999999,8.37402,3.1311,19.7754,5.20172,11.1069,0.9033200000000001,2.57111,13.4369
1.92,37.3642,6.66962,8.37402,3.13263,19.7723,5.19867,11.1023,0.9063709999999999,2.5726299999999998,13.4384
1.94,37.3337,6.665039999999999,8.3725,3.1311,19.7876,5.19714,11.1023,0.9063709999999999,2.5695799999999998,13.4521
1.96,37.3077,6.6665600000000005,8.37402,3.12958,19.7891,5.20019,11.1023,0.9017940000000001,2.5726299999999998,13.4491
1.98,37.2849,6.6665600000000005,8.363339999999999,3.13263,19.7906,5.19867,11.1008,0.9048459999999999,2.5726299999999998,13.4491
2.0,37.2635,6.6665600000000005,8.36182,3.13263,19.7983,5.19867,11.1008,0.9048459999999999,2.5695799999999998,13.4506
2.02,37.236,6.67877,8.363339999999999,3.13263,19.7998,5.19714,11.0992,0.9017940000000001,2.57111,13.4552
2.04,37.2269,6.67877,8.36487,3.1311,19.809,5.20172,11.1053,0.9002680000000001,2.57111,13.4521
2.06,37.2116,6.67877,8.36487,3.13263,19.809,5.20019,11.1038,0.9017940000000001,2.5695799999999998,13.4506
2.08,37.1872,6.6803,8.35724,3.13415,19.8227,5.19562,11.1038,0.9033200000000001,2.56805,13.4506
2.1,37.1857,6.67572,8.35876,3.13263,19.8242,5.19867,11.0901,0.9002680000000001,2.5695799999999998,13.4628
2.12,37.1735,6.67877,8.360289999999999,3.12958,19.8349,5.20172,11.0901,0.9017940000000001,2.57111,13.4674
2.14,37.1719,6.67877,8.363339999999999,3.13263,19.8349,5.20019,11.0901,0.9017940000000001,2.57416,13.4644
2.16,37.1643,6.67572,8.36182,3.13873,19.8471,5.19714,11.0901,0.9048459999999999,2.57111,13.4644
2.18,37.1597,6.6803,8.366389999999999,3.13415,19.8456,5.19714,11.0931,0.9017940000000001,2.5756799999999997,13.4659
2.2,37.175,6.6803,8.35876,3.13415,19.8593,5.20172,11.0886,0.9002680000000001,2.5756799999999997,13.4644
2.22,37.178000000000004,6.67572,8.35419,3.13568,19.8593,5.20019,11.0901,0.9033200000000001,2.5726299999999998,13.4644
2.24,37.1872,6.67572,8.35113,3.13263,19.8563,5.20172,11.0886,0.9017940000000001,2.5726299999999998,13.4766
2.26,37.1963,6.67877,8.34961,3.13263,19.8593,5.19867,11.0916,0.9017940000000001,2.5695799999999998,13.475
2.28,37.2101,6.6803,8.35266,3.13415,19.8608,5.19714,11.0886,0.9017940000000001,2.57416,13.4766
2.3,37.233000000000004,6.67725,8.35113,3.13568,19.8624,5.19867,11.0931,0.9033200000000001,2.5695799999999998,13.4781
2.32,37.2482,6.67725,8.35113,3.13263,19.8608,5.20019,11.0886,0.9063709999999999,2.57111,13.4781
2.34,37.2726,6.68182,8.35113,3.13415,19.8563,5.19562,11.0901,0.898742,2.57111,13.4766
2.36,37.2879,6.67572,8.3374,3.1311,19.8593,5.19867,11.0901,0.9048459999999999,2.56805,13.4766
2.38,37.3077,6.67877,8.34198,3.13263,19.8593,5.20477,11.0901,0.9002680000000001,2.57111,13.4857
2.4,37.323,6.67725,8.33435,3.13263,19.8608,5.19562,11.0886,0.9002680000000001,2.5726299999999998,13.4872
2.42,37.3337,6.67725,8.33893,3.13263,19.8486,5.19867,11.0901,0.9017940000000001,2.57111,13.4903
2.44,37.3459,6.67877,8.33588,3.1311,19.8471,5.20325,11.0901,0.9033200000000001,2.58331,13.4903
2.46,37.3611,6.67725,8.3374,3.1311,19.8364,5.20019,11.0916,0.9033200000000001,2.5848400000000002,13.4888
2.48,37.384,6.67725,8.33588,3.12958,19.8349,5.19562,11.0901,0.9048459999999999,2.58331,13.4903
2.5,37.3978,6.6803,8.34045,3.13415,19.8227,5.19562,11.0764,0.9002680000000001,2.58636,13.5025
2.52,37.4207,6.67877,8.32672,3.1311,19.812,5.21088,11.0779,0.9017940000000001,2.5848400000000002,13.4995
2.54,37.4313,6.68182,8.32519,3.13568,19.812,5.20935,11.0764,0.9002680000000001,2.58331,13.4995
2.56,37.4573,6.6803,8.32367,3.13415,19.7983,5.21088,11.0748,0.9033200000000001,2.5848400000000002,13.501
2.58,37.4832,6.67877,8.32367,3.1311,19.783,5.21088,11.0733,0.9017940000000001,2.58331,13.4979
2.6,37.5031,6.67877,8.32519,3.13415,19.783,5.20935,11.0809,0.9033200000000001,2.5939900000000002,13.4995
2.62,37.5397,6.6803,8.32672,3.1311,19.7739,5.20935,11.0794,0.9033200000000001,2.59247,13.5132
2.64,37.5656,6.6803,8.32519,3.12958,19.7632,5.20782,11.0764,0.9033200000000001,2.59552,13.5132
2.66,37.586999999999996,6.67877,8.32672,3.12958,19.7464,5.20935,11.0809,0.9033200000000001,2.59552,13.5117
2.68,37.619,6.68182,8.32519,3.13568,19.7495,5.21393,11.0779,0.9033200000000001,2.5939900000000002,13.5178
2.7,37.6373,6.6803,8.32672,3.13415,19.7388,5.20935,11.0779,0.9063709999999999,2.59705,13.5117
2.72,37.6633,6.67877,8.32367,3.13415,19.722,5.2124,11.0809,0.9048459999999999,2.60925,13.5223
2.74,37.6892,6.67725,8.32519,3.13263,19.7128,5.21088,11.0779,0.9033200000000001,2.60925,13.5254
2.76,37.7136,6.67725,8.32367,3.13415,19.6976,5.20935,11.0809,0.9033200000000001,2.60925,13.5239
2.78,37.735,6.674189999999999,8.32367,3.12958,19.6884,5.2124,11.0779,0.9033200000000001,2.61078,13.5239
2.8,37.7594,6.67725,8.32672,3.13263,19.6747,5.20935,11.0794,0.9033200000000001,2.60773,13.5239
2.82,37.7747,6.67725,8.31299,3.13415,19.6655,5.20782,11.0764,0.9017940000000001,2.61993,13.5376
2.84,37.8021,6.67572,8.31299,3.13415,19.6503,5.20935,11.0779,0.9063709999999999,2.61688,13.5376
2.86,37.821999999999996,6.67877,8.31604,3.13263,19.6396,5.21393,11.0779,0.9017940000000001,2.61841,13.5391
2.88,37.8479,6.68182,8.30994,3.13263,19.6243,5.21393,11.0794,0.9002680000000001,2.62146,13.5361
2.9,37.8738,6.67725,8.31604,3.13263,19.6045,5.2124,11.0641,0.9048459999999999,2.61993,13.5483
2.92,37.8967,6.67572,8.31146,3.1311,19.5892,5.2124,11.0641,0.9048459999999999,2.63519,13.5483
2.94,37.9227,6.6803,8.31451,3.13263,19.5755,5.2124,11.0687,0.9017940000000001,2.63367,13.5483
2.96,37.9333,6.67877,8.31299,3.1311,19.5648,5.21088,11.0672,0.9033200000000001,2.63214,13.562000000000001
2.98,37.9562,6.67877,8.31299,3.12958,19.5541,5.21088,11.0657,0.9033200000000001,2.63367,13.559000000000001
3.0,37.9807,6.6665600000000005,8.31604,3.1311,19.5267,5.21088,11.0672,0.9033200000000001,2.64587,13.562000000000001
3.02,37.9929,6.6665600000000005,8.31299,3.13415,19.5175,5.2124,11.0641,0.9033200000000001,2.64587,13.5742
3.04,38.0112,6.6665600000000005,8.31604,3.1311,19.5038,5.20935,11.0641,0.9063709999999999,2.64282,13.5727
3.06,38.0295,6.67267,8.31299,3.13263,19.4763,5.2124,11.0687,0.9033200000000001,2.6474,13.5727
3.08,38.0417,6.665039999999999,8.31146,3.13415,19.4687,5.2063,11.0657,0.9048459999999999,2.65655,13.5895
3.1,38.0417,6.6665600000000005,8.30231,3.13263,19.455,5.20935,11.0672,0.9002680000000001,2.65808,13.5864
3.12,38.0493,6.6665600000000005,8.30231,3.12958,19.4427,5.21088,11.0672,0.9017940000000001,2.65961,13.5864
3.14,38.0524,6.6665600000000005,8.30383,3.1311,19.426,5.21088,11.0657,0.898742,2.6535,13.5864
3.16,38.0524,6.66962,8.29925,3.1311,19.4199,5.2124,11.0641,0.9048459999999999,2.67181,13.5971
3.18,38.0508,6.668089999999999,8.30231,3.1311,19.4092,5.21393,11.0672,0.9017940000000001,2.67029,13.6002
3.2,38.0539,6.6665600000000005,8.30078,3.12958,19.3939,5.20935,11.0657,0.9048459999999999,2.66876,13.6002
3.22,38.0722,6.66962,8.29925,3.13568,19.3817,5.21393,11.0657,0.9017940000000001,2.67029,13.6139
3.24,38.0676,6.671139999999999,8.30231,3.1311,19.371,5.20782,11.0657,0.9017940000000001,2.68555,13.6124
3.26,38.063,6.6665600000000005,8.30078,3.1311,19.3573,5.21088,11.0672,0.9017940000000001,2.67944,13.6124
3.28,38.0798,6.668089999999999,8.29925,3.13415,19.3451,5.21393,11.0657,0.9033200000000001,2.68249,13.6124
3.3,38.0783,6.67267,8.30078,3.13263,19.3359,5.21545,11.0657,0.898742,2.68249,13.6215
3.32,38.0783,6.668089999999999,8.30231,3.13415,19.3222,5.21088,11.0535,0.9033200000000001,2.6947,13.623
3.34,38.089,6.668089999999999,8.30231,3.13415,19.3207,5.2124,11.0535,0.9002680000000001,2.6901200000000003,13.623
3.36,38.0905,6.6635100000000005,8.30383,3.13415,19.3054,5.21393,11.0535,0.9048459999999999,2.69318,13.6246
3.38,38.092,6.668089999999999,8.29925,3.1311,19.2932,5.21393,11.0535,0.9017940000000001,2.69165,13.6368
3.4,38.089,6.6665600000000005,8.31299,3.1311,19.2841,5.21088,11.0535,0.9017940000000001,2.70538,13.6368
3.42,38.092,6.6635100000000005,8.31299,3.13263,19.2688,5.21088,11.0565,0.9002680000000001,2.7038599999999997,13.6337
3.44,38.0798,6.665039999999999,8.31299,3.1311,19.2734,5.20782,11.0565,0.9017940000000001,2.70538,13.6383
3.46,38.0798,6.6665600000000005,8.30994,3.13415,19.2612,5.2124,11.0535,0.9002680000000001,2.72064,13.6307
3.48,38.063,6.66962,8.31146,3.1311,19.2505,5.2124,11.0519,0.9033200000000001,2.71759,13.6505
3.5,38.063,6.665039999999999,8.30994,3.12958,19.2337,5.21393,11.055,0.9002680000000001,2.71454,13.6459
3.52,38.0539,6.665039999999999,8.31299,3.1311,19.2245,5.2124,11.0535,0.907897,2.72827,13.6444
3.54,38.0417,6.66962,8.31451,3.13415,19.2078,5.21088,11.0535,0.9033200000000001,2.7298,13.6475
3.56,38.0295,6.6665600000000005,8.31146,3.13415,19.2123,5.2124,11.0535,0.9033200000000001,2.742,13.649000000000001
3.58,38.0142,6.6635100000000005,8.31299,3.13415,19.1956,5.20782,11.0535,0.9033200000000001,2.74048,13.6459
3.6,38.0081,6.668089999999999,8.30994,3.13415,19.1849,5.20935,11.0504,0.9033200000000001,2.742,13.649000000000001
3.62,37.9929,6.6665600000000005,8.31451,3.12958,19.1757,5.20935,11.0535,0.9002680000000001,2.7557400000000003,13.6612
3.64,37.9807,6.66962,8.31146,3.13263,19.1757,5.20935,11.055,0.9033200000000001,2.7587900000000003,13.6597
3.66,37.9654,6.668089999999999,8.32519,3.13263,19.162,5.21088,11.0413,0.9017940000000001,2.7557400000000003,13.6597
3.68,37.9562,6.6635100000000005,8.32367,3.13568,19.1605,5.21088,11.0413,0.9017940000000001,2.76642,13.6597
3.7,37.941,6.6665600000000005,8.32519,3.13263,19.1483,5.21088,11.0397,0.9002680000000001,2.76642,13.6627
3.72,37.9211,6.668089999999999,8.32519,3.13263,19.1483,5.2124,11.0382,0.9017940000000001,2.76642,13.6627
3.74,37.8952,6.668089999999999,8.32825,3.13263,19.1376,5.21088,11.0397,0.9033200000000001,2.78015,13.6627
3.76,37.8708,6.6665600000000005,8.32519,3.13415,19.1315,5.20782,11.0382,0.9033200000000001,2.7771,13.6612
